21,16,16,20,20,22,23,24,17,15,17,25,26,19,18,23,29,37,38,36,33,34,40,44,43,45,45,44,47,50,50,50,53,53,53,54,51,47,47,49,51,53,51,50,51,57,68,76,83,90,99,107,116,123,131,132,130,125,115,102,86,66,44,28,24,30,28,31,37,43,45,41,37,33,32,34,44,42,36,35,42,-8,-151,-321,-417,-330,5,501,884,985,985,1029,1058,977,762,529,375,267,149,51,-6,-36,-53,-64,-70,-77,-83,-83,-83,-89,-88,-91,-98,-101,-100,-105,-118,-118,-125,-136,-139,-141,-148,-160,-169,-182,-198,-209,-214,-233,-246,-260,-274,-283,-289,-297,-304,-310,-304,-298,-290,-277,-256,-222,-192,-163,-132,-99,-70,-40,-16,9,29,47,61,72,81,90,96,99,102,100,96,94,96,99,96,94,90,87,90,86,86,88,88,82,79,78,80,80,81,83,84,82,88,91,95,100,99,93,92,96,98,101,107,110,108,106,107,105,101,102,105,108,110,113,113,117,122,120,114,112,106,105,110,118,121,123,133,145,153,157,164,183,188,182,173,167,152,135,124,111,97,86,82,84,89,95,98,97,95,94,94,92,97,99,98,90,89,99,79,-22,-188,-340,-366,-160,299,773,982,1016,1077,1151,1129,952,693,498,374,259,152,74,19,-12,-22,-27,-36,-48,-56,-56,-55,-55,-59,-64,-63,-62,-65,-75,-85,-89,-94,-105,-115,-117,-118,-129,-142,-150,-161,-177,-186,-195,-210,-225,-238,-244,-252,-257,-264,-269,-268,-263,-245,-222,-198,-170,-139,-116,-90,-60,-31,-4,17,37,49,62,77,88,94,95,99,100,101,101,101,101,103,104,104,106,109,105,107,109,107,108,102,96,94,96,100,104,105,104,102,103,110,112,113,111,112,115,111,109,111,116,123,120,114,111,111,114,115,112,112,117,122,123,131,140,155,167,170,181,201,208,203,195,182,169,148,126,110,94,91,94,92,92,92,90,85,86,86,87,88,93,99,100,97,101,100,79,19,-99,-268,-356,-243,108,548,789,829,855,925,943,833,629,433,328,254,181,118,68,34,10,6,9,7,2,-1,-1,3,5,4,0,-2,5,11,13,10,3,0,1,0,0,-4,-4,-6,-5,-4,-7,-13,-18,-23,-28,-33,-34,-36,-38,-32,-19,-5,6,16,35,53,67,90,118,139,156,169,185,199,214,223,234,245,251,258,262,263,270,278,282,289,296,302,310,314,317,318,321,323,323,325,328,335,344,351,356,358,358,361,364,366,372,376,375,378,379,378,383,391,391,392,398,402,400,401,400,403,415,437,459,475,489,508,517,515,512,509,499,486,475,454,429,410,402,399,400,405,408,414,422,426,428,430,434,437,448,459,457,464,476,478,451,386,258,179,257,506,849,1047,1043,1044,1094,1128,1070,908,728,630,605,585,582,564,538,523,515,510,516,523,529,537,541,547,553,553,556,563,567,571,574,582,595,603,600,599,603,602,603,602,602,602,602,602,600,603,604,598,593,589,587,584,583,590,596,604,613,616,616,619,631,642,645,651,652,652,656,656,658,657,658,655,649,650,651,657,661,655,649,639,628,628,632,633,628,620,617,611,607,605,606,607,609,604,599,602,602,603,604,605,604,595,591,600,621,645,668,679,694,703,689,673,666,662,652,638,617,591,557,528,512,509,515,510,498,492,489,489,489,488,484,483,485,484,481,485,493,498,472,407,301,200,216,409,750,1073,1123,1024,972,962,904,772,609,523,521,519,503,473,446,428,424,429,433,433,430,431,433,440,443,443,439,442,450,450,453,457,459,461,467,475,481,483,479,479,485,491,493,488,481,479,485,489,488,488,483,477,478,483,489,497,506,511,514,518,524,527,528,519,506,506,509,509,509,512,515,510,510,511,514,516,515,520,523,521,519,518,519,515,519,526,526,523,524,528,532,529,532,540,542,544,548,553,558,564,571,576,584,595,608,613,623,638,653,667,684,686,670,660,661,654,633,606,580,560,535,518,515,508,498,494,494,495,496,491,487,490,489,485,483,478,478,486,494,481,417,331,256,279,452,761,1074,1119,987,908,866,788,666,542,504,516,513,480,439,415,400,393,391,386,382,382,382,380,380,384,388,386,382,380,382,389,393,395,397,398,402,401,404,407,403,399,399,403,403,400,402,405,405,401,403,401,399,399,404,412,419,423,426,432,437,442,443,446,443,439,439,434,429,426,424,426,422,416,419,422,417,413,408,408,408,410,410,408,408,404,404,406,404,401,405,407,407,410,410,410,414,415,409,407,413,416,418,415,417,422,431,440,450,453,461,473,485,495,501,510,526,527,513,500,491,480,457,431,401,375,361,353,352,349,347,350,349,347,348,348,348,348,349,343,340,346,357,368,348,281,199,165,244,448,766,1023,991,864,807,748,633,492,416,417,429,405,354,319,294,278,275,276,274,274,275,276,278,278,277,275,276,278,274,275,280,278,280,285,285,284,288,286,285,284,282,283,284,278,279,280,281,278,276,277,275,272,277,286,293,298,305,310,313,321,325,328,332,331,335,337,336,337,334,331,331,331,330,329,325,324,328,327,322,322,321,318,317,315,311,313,313,310,307,309,309,307,302,302,305,304,303,302,302,309,314,311,306,307,306,306,307,309,313,313,308,306,308,306,307,308,310,306,303,302,307,313,319,328,340,354,363,371,378,390,399,408,413,404,388,374,359,338,308,283,267,253,251,252,250,249,244,242,242,245,245,246,245,245,249,250,251,261,267,221,133,62,88,238,517,854,993,886,794,742,648,500,370,332,334,324,282,231,195,175,167,163,162,161,157,151,146,152,154,147,144,142,144,148,148,149,154,155,152,152,154,153,152,148,146,145,143,137,131,126,118,115,113,108,102,100,97,98,103,106,115,124,131,144,157,167,172,179,185,188,190,191,191,193,192,191,188,185,184,184,181,182,180,179,177,174,169,167,163,161,164,165,163,160,162,166,169,174,171,160,153,149,147,148,152,155,158,159,157,152,150,146,146,147,147,149,150,154,148,141,141,143,142,140,141,138,135,132,131,134,132,133,129,123,120,123,129,135,144,156,173,189,203,211,208,202,210,218,212,195,176,155,129,98,73,55,47,53,49,46,53,55,51,50,47,46,45,42,39,44,46,47,55,40,-20,-111,-171,-112,88,423,748,789,687,637,584,473,324,207,175,157,126,72,20,-13,-31,-38,-43,-51,-55,-54,-55,-58,-65,-71,-72,-67,-65,-73,-77,-78,-79,-83,-84,-81,-81,-85,-88,-95,-98,-100,-101,-105,-113,-119,-122,-127,-137,-145,-154,-156,-162,-167,-159,-154,-147,-135,-124,-110,-94,-79,-66,-52,-42,-36,-28,-23,-24,-28,-27,-17,-9,-8,-9,-8,-10,-13,-14,-14,-14,-16,-18,-22,-28,-30,-30,-31,-27,-31,-36,-34,-36,-38,-38,-38,-41,-44,-45,-45,-42,-36,-35,-35,-33,-31,-30,-28,-30,-34,-38,-38,-36,-34,-37,-36,-40,-45,-45,-37,-38,-39,-42,-48,-47,-42,-44,-47,-50,-51,-53,-57,-56,-57,-61,-66,-65,-62,-66,-66,-66,-67,-69,-69,-67,-65,-67,-67,-62,-58,-47,-32,-25,-27,-18,4,20,33,44,47,42,30,22,18,11,-4,-29,-58,-88,-106,-115,-116,-122,-124,-123,-127,-128,-132,-133,-134,-135,-132,-127,-125,-128,-131,-128,-127,-163,-241,-347,-411,-343,-122,250,592,641,567,535,496,403,260,127,70,32,-20,-87,-141,-176,-192,-199,-203,-201,-203,-207,-208,-211,-210,-208,-213,-216,-212,-211,-214,-213,-210,-208,-207,-205,-199,-199,-204,-208,-210,-217,-222,-224,-232,-238,-243,-253,-260,-261,-266,-273,-276,-274,-274,-270,-259,-243,-224,-207,-190,-177,-160,-139,-122,-108,-95,-85,-77,-73,-72,-65,-60,-53,-49,-51,-55,-50,-46,-47,-48,-48,-49,-43,-44,-45,-44,-42,-42,-43,-43,-43,-44,-47,-51,-49,-47,-46,-40,-35,-34,-40,-40,-37,-34,-30,-28,-23,-25,-26,-30,-25,-21,-25,-31,-26,-21,-23,-22,-15,-17,-17,-13,-11,-14,-18,-18,-16,-15,-13,-12,-13,-13,-9,-2,5,12,21,37,46,56,66,71,76,88,97,93,76,59,42,21,-8,-29,-38,-39,-40,-41,-36,-40,-42,-45,-44,-41,-40,-39,-36,-36,-39,-35,-32,-28,-57,-139,-271,-386,-382,-191,206,597,707,682,688,685,605,445,270,184,139,87,18,-40,-75,-94,-103,-106,-108,-114,-115,-117,-120,-127,-128,-124,-128,-125,-125,-130,-131,-133,-130,-129,-131,-130,-133,-138,-140,-144,-150,-153,-154,-162,-169,-171,-179,-185,-186,-192,-198,-199,-196,-191,-183,-174,-157,-141,-127,-111,-92,-75,-60,-45,-38,-30,-22,-15,-8,0,1,4,4,6,9,11,10,13,13,12,13,12,12,15,12,11,12,9,10,13,12,11,12,9,7,18,19,16,18,20,21,19,22,26,24,26,23,19,25,25,28,29,33,33,28,27,27,32,32,33,38,36,32,34,37,37,29,29,31,30,30,30,32,36,34,30,34,35,35,48,62,77,88,99,105,111,110,116,125,124,111,95,78,59,32,10,-4,-8,-7,-6,-11,-16,-12,-8,-7,-6,-7,-9,-9,-4,-1,1,4,-3,-49,-153,-295,-392,-350,-95,357,728,796,771,783,759,652,475,316,235,179,106,26,-30,-62,-80,-86,-91,-96,-98,-103,-105,-107,-107,-110,-116,-118,-125,-130,-124,-123,-126,-125,-129,-132,-134,-137,-145,-152,-153,-157,-162,-171,-182,-190,-200,-209,-216,-223,-230,-229,-227,-226,-225,-218,-204,-182,-162,-143,-121,-98,-74,-54,-37,-22,-12,-6,5,17,22,25,29,29,33,39,41,35,37,38,40,40,35,31,33,37,39,35,33,34,33,28,27,32,36,37,34,32,35,40,41,37,32,36,42,43,45,44,41,47,52,51,49,51,51,48,52,54,50,51,51,46,51,55,59,61,60,59,56,53,51,50,60,67,74,85,98,107,119,129,134,134,143,152,148,138,126,103,69,40,22,13,12,15,20,18,8,16,23,21,20,20,16,19,27,24,14,15,11,-49,-170,-310,-382,-291,43,532,839,859,855,879,835,701,508,353,262,197,114,40,-9,-44,-62,-70,-76,-79,-79,-83,-92,-87,-85,-89,-98,-104,-109,-111,-114,-115,-113,-115,-122,-127,-132,-141,-156,-165,-173,-184,-192,-201,-212,-223,-230,-235,-238,-241,-247,-256,-271,-269,-264,-249,-231,-209,-186,-164,-143,-124,-101,-73,-54,-43,-35,-20,-14,-7,2,5,12,14,12,14,20,25,26,28,31,29,24,23,23,23,19,19,19,17,18,15,8,10,20,22,22,22,24,26,28,28,30,37,38,37,37,32,28,32,36,39,40,42,43,46,48,51,46,49,56,52,55,60,68,81,92,102,108,116,121,127,144,153,147,139,126,109,84,59,48,44,39,37,39,37,34,37,35,35,35,40,43,43,42,41,44,52,51,-3,-128,-279,-361,-271,63,551,876,917,913,932,892,756,558,396,303,234,147,69,11,-19,-28,-34,-44,-51,-54,-58,-56,-56,-59,-62,-67,-69,-74,-75,-79,-82,-85,-90,-94,-96,-103,-113,-116,-125,-133,-143,-153,-160,-170,-186,-203,-212,-217,-220,-225,-230,-226,-216,-208,-194,-169,-142,-115,-85,-61,-34,-5,22,42,55,69,88,102,109,113,118,123,125,126,127,129,133,135,135,131,126,124,125,130,129,121,119,122,124,125,123,118,117,120,123,125,128,129,129,130,131,130,133,132,129,126,128,129,128,129,132,132,133,132,134,139,137,132,130,132,135,140,144,150,160,171,180,184,190,209,226,226,217,207,198,176,144,124,107,95,91,87,90,92,94,95,95,91,91,93,91,89,84,86,91,94,93,57,-26,-174,-319,-321,-94,309,643,739,771,855,924,859,677,460,316,239,173,122,67,23,-1,-10,-13,-14,-17,-22,-23,-22,-25,-27,-28,-29,-32,-36,-38,-37,-37,-33,-31,-34,-38,-41,-45,-50,-54,-58,-65,-70,-81,-93,-103,-107,-111,-119,-128,-133,-128,-126,-126,-116,-102,-93,-80,-65,-50,-32,-11,2,12,24,36,49,55,60,69,69,70,74,77,76,78,79,78,79,82,81,78,75,75,72,70,72,73,76,76,74,79,82,81,78,77,75,72,73,73,74,76,79,79,82,83,84,80,75,78,79,80,81,85,94,99,109,124,133,139,150,172,188,185,175,161,147,123,98,75,59,47,45,47,45,43,40,41,43,45,45,48,50,50,47,44,47,49,34,-13,-104,-237,-317,-239,32,420,660,659,632,658,660,562,389,254,206,173,132,78,27,-4,-20,-25,-28,-30,-30,-32,-38,-39,-35,-33,-31,-31,-33,-32,-30,-30,-28,-28,-29,-26,-23,-28,-32,-35,-39,-41,-44,-50,-54,-57,-61,-63,-64,-65,-67,-71,-76,-73,-66,-55,-44,-33,-23,-13,-2,11,24,31,39,44,51,57,61,61,62,64,64,67,68,65,67,71,69,69,70,69,71,72,69,72,73,74,71,71,72,71,76,81,80,79,81,83,84,83,84,86,84,88,92,92,88,86,94,101,105,111,126,138,147,158,165,171,176,188,201,205,195,173,155,140,114,85,65,59,56,55,55,48,50,56,59,60,56,55,55,53,52,59,68,69,34,-44,-155,-242,-205,-8,355,708,760,677,640,602,514,378,269,226,204,160,93,45,19,6,-1,-3,-6,-6,-7,-7,-10,-14,-14,-14,-11,-15,-20,-16,-13,-16,-19,-17,-18,-23,-24,-22,-22,-26,-33,-37,-41,-45,-48,-55,-62,-63,-66,-69,-69,-63,-60,-56,-47,-36,-23,-6,11,22,32,48,59,69,78,82,82,86,90,91,91,93,95,96,96,94,95,93,91,89,90,89,87,86,85,85,84,83,85,89,88,88,88,85,85,85,86,90,94,95,90,91,93,94,96,97,97,97,96,94,97,106,115,123,135,145,154,166,175,182,184,193,199,198,185,166,144,117,87,65,56,52,51,48,51,55,54,51,54,56,57,53,55,58,58,64,68,61,9,-84,-195,-236,-135,134,538,796,766,702,669,603,486,341,253,220,191,133,67,23,-1,-12,-16,-18,-21,-24,-25,-30,-34,-35,-36,-35,-38,-41,-45,-44,-43,-46,-48,-50,-48,-45,-48,-56,-62,-63,-64,-71,-73,-77,-85,-88,-98,-105,-107,-109,-112,-111,-104,-99,-93,-80,-62,-40,-24,-7,8,19,26,36,45,50,59,64,67,70,72,76,80,79,75,74,78,85,81,79,81,77,74,71,71,70,68,70,69,67,72,73,74,75,77,78,76,75,73,70,74,78,80,79,77,81,89,87,83,85,85,85,89,89,87,85,87,91,90,88,89,84,77,81,87,93,102,109,120,128,136,149,156,157,159,168,166,163,156,143,125,99,78,63,51,45,46,42,42,41,38,40,38,38,41,44,43,44,52,53,58,62,29,-55,-183,-280,-247,-10,406,740,795,776,796,787,693,526,368,283,226,157,84,29,-7,-24,-28,-37,-51,-55,-49,-48,-54,-61,-64,-64,-65,-77,-88,-84,-82,-80,-75,-76,-74,-71,-75,-84,-94,-107,-120,-126,-137,-148,-151,-156,-157,-155,-163,-171,-182,-182,-176,-174,-163,-147,-130,-115,-106,-103,-82,-52,-37,-22,-7,3,11,17,21,32,39,31,25,23,23,18,16,14,16,19,16,11,4,-1,-2,5,7,8,10,7,6,4,1,4,5,2,-2,-6,-6,7,5,-12,-14,2,12,15,13,11,12,10,5,6,7,5,0,-7,-4,-3,-1,6,6,2,-5,-9,-9,-3,-3,-7,-6,-5,-7,-5,2,11,22,34,47,58,64,72,78,86,89,83,67,53,33,6,-19,-39,-51,-52,-53,-55,-55,-53,-57,-65,-68,-65,-65,-70,-73,-72,-72,-72,-77,-77,-98,-174,-289,-386,-380,-218,124,523,677,618,604,619,579,453,303,204,131,53,-35,-102,-136,-150,-157,-160,-163,-166,-174,-179,-178,-180,-186,-187,-186,-186,-193,-196,-195,-200,-203,-204,-206,-211,-214,-221,-233,-241,-245,-252,-261,-264,-277,-289,-296,-304,-313,-323,-328,-329,-327,-321,-308,-298,-285,-265,-246,-230,-205,-182,-161,-141,-127,-108,-94,-91,-84,-81,-79,-78,-77,-75,-74,-73,-71,-69,-68,-66,-68,-72,-73,-74,-79,-79,-77,-76,-78,-83,-84,-83,-85,-83,-82,-84,-83,-81,-81,-80,-78,-77,-75,-75,-78,-76,-73,-74,-74,-72,-67,-67,-72,-71,-67,-70,-69,-71,-73,-73,-71,-74,-73,-71,-67,-66,-68,-71,-74,-72,-71,-76,-76,-71,-65,-58,-55,-44,-30,-17,-14,-8,0,5,16,21,14,2,-15,-34,-57,-78,-97,-107,-108,-110,-106,-104,-108,-110,-108,-105,-103,-102,-104,-106,-109,-109,-106,-103,-105,-142,-230,-356,-444,-404,-181,213,589,684,653,677,687,622,458,282,173,89,-3,-91,-150,-182,-198,-207,-216,-222,-223,-222,-224,-230,-237,-239,-238,-238,-238,-244,-248,-251,-252,-257,-261,-265,-272,-280,-286,-293,-302,-310,-314,-322,-331,-340,-349,-360,-375,-383,-383,-388,-390,-389,-383,-368,-356,-338,-315,-289,-264,-245,-225,-203,-182,-166,-154,-138,-126,-120,-114,-110,-109,-104,-98,-92,-89,-91,-94,-97,-94,-92,-92,-93,-96,-95,-96,-98,-101,-101,-100,-101,-104,-104,-101,-100,-95,-97,-99,-98,-97,-99,-97,-84,-79,-84,-84,-82,-81,-84,-84,-82,-83,-82,-78,-80,-79,-75,-74,-77,-81,-81,-81,-81,-79,-77,-78,-75,-70,-69,-73,-74,-75,-73,-74,-79,-80,-79,-74,-68,-59,-47,-37,-28,-22,-17,-14,-6,6,13,10,3,-12,-31,-51,-78,-96,-100,-99,-99,-97,-98,-101,-102,-99,-97,-97,-95,-99,-99,-99,-96,-96,-98,-100,-135,-229,-362,-470,-455,-237,181,580,711,694,728,762,723,566,364,229,127,29,-63,-130,-172,-200,-202,-204,-211,-217,-222,-230,-237,-239,-238,-239,-247,-252,-253,-260,-266,-266,-270,-273,-278,-283,-292,-296,-307,-316,-320,-329,-341,-350,-354,-366,-382,-387,-395,-404,-410,-413,-407,-400,-388,-367,-347,-328,-303,-277,-249,-220,-197,-180,-160,-141,-129,-116,-107,-98,-96,-90,-83,-85,-80,-81,-78,-77,-80,-81,-78,-74,-77,-81,-84,-81,-78,-78,-81,-82,-77,-77,-84,-85,-85,-85,-83,-86,-84,-78,-71,-70,-70,-72,-71,-66,-69,-65,-64,-63,-64,-63,-64,-66,-59,-52,-54,-57,-60,-59,-52,-57,-57,-55,-56,-56,-54,-53,-52,-49,-49,-55,-54,-51,-51,-51,-44,-36,-25,-19,-13,-4,1,1,7,20,26,21,9,-5,-26,-45,-63,-76,-84,-83,-79,-78,-76,-82,-84,-80,-76,-79,-81,-79,-78,-73,-74,-75,-76,-96,-177,-309,-442,-490,-358,8,486,773,792,796,841,842,724,513,339,220,106,-7,-88,-137,-160,-176,-184,-189,-199,-204,-204,-205,-205,-212,-216,-220,-225,-226,-229,-235,-243,-248,-255,-262,-266,-274,-280,-285,-290,-303,-323,-338,-347,-355,-369,-378,-388,-401,-411,-414,-413,-411,-407,-396,-379,-361,-332,-300,-265,-236,-206,-176,-150,-127,-113,-96,-75,-58,-52,-51,-44,-36,-34,-31,-31,-29,-27,-28,-27,-30,-29,-30,-31,-36,-38,-38,-37,-38,-37,-38,-37,-34,-35,-32,-31,-36,-41,-41,-35,-33,-36,-31,-26,-32,-31,-25,-19,-17,-16,-16,-16,-20,-22,-22,-24,-20,-16,-21,-23,-23,-22,-15,-11,-15,-16,-23,-19,-18,-16,-13,-11,-11,0,10,15,23,28,29,33,44,42,40,42,34,15,-8,-32,-42,-47,-54,-56,-58,-58,-51,-46,-49,-53,-48,-44,-44,-41,-46,-50,-49,-50,-56,-106,-218,-372,-476,-431,-159,301,692,802,800,849,886,826,636,426,286,171,51,-46,-102,-140,-159,-168,-180,-181,-178,-180,-185,-182,-187,-193,-192,-197,-201,-199,-200,-211,-223,-232,-236,-235,-236,-249,-261,-268,-272,-283,-299,-312,-324,-327,-341,-356,-361,-370,-384,-386,-384,-379,-367,-350,-326,-302,-275,-252,-230,-198,-168,-139,-108,-86,-70,-57,-50,-43,-35,-21,-14,-15,-16,-14,-7,-5,-4,-4,-4,-6,-10,-14,-14,-17,-21,-23,-19,-8,-10,-17,-19,-15,-14,-16,-17,-8,-7,-2,1,2,0,-1,0,4,7,11,7,7,15,20,20,14,15,17,15,17,19,19,23,22,26,25,22,20,26,35,35,36,38,48,56,63,72,80,97,99,92,83,71,55,37,18,3,-1,0,2,2,-2,5,8,2,2,7,6,6,6,7,5,7,10,5,-50,-181,-350,-459,-408,-101,377,749,851,874,942,1001,944,736,502,339,220,104,1,-68,-105,-123,-129,-139,-141,-144,-157,-165,-169,-167,-170,-176,-180,-187,-189,-192,-196,-202,-211,-221,-228,-233,-236,-249,-257,-263,-270,-284,-304,-322,-339,-349,-353,-363,-371,-374,-372,-364,-359,-345,-332,-314,-285,-254,-231,-203,-167,-137,-112,-87,-66,-46,-32,-15,0,8,5,8,12,15,17,21,22,25,21,17,20,15,5,13,16,11,5,10,13,11,10,15,16,16,16,13,12,17,24,29,32,33,18,14,27,32,28,13,13,24,26,22,23,25,13,7,24,27,32,32,29,26,35,39,43,49,62,67,66,93,108,94,78,65,56,43,25,11,4,6,4,3,10,13,15,12,8,5,4,1,2,10,20,25,25,30,-26,-163,-333,-449,-413,-114,378,798,933,940,1000,1058,1014,810,556,374,244,121,18,-54,-93,-113,-120,-123,-128,-139,-146,-153,-158,-167,-167,-166,-166,-172,-178,-185,-196,-210,-232,-236,-234,-242,-249,-259,-270,-283,-297,-319,-340,-352,-366,-376,-388,-399,-410,-415,-410,-412,-408,-390,-369,-350,-325,-292,-257,-226,-197,-171,-137,-102,-76,-56,-41,-28,-26,-18,-9,-1,5,11,15,24,14,9,9,8,8,-1,-11,-11,-2,7,6,3,6,10,8,8,14,17,18,19,21,23,27,25,18,18,22,22,24,30,37,38,35,32,34,36,47,52,46,39,38,43,44,50,53,57,62,70,80,92,102,109,125,131,130,121,108,95,74,56,41,36,39,39,38,36,36,40,45,46,49,51,49,49,47,47,53,61,63,8,-119,-288,-413,-378,-71,400,762,877,925,1009,1056,971,748,519,370,257,148,59,0,-36,-53,-58,-72,-80,-87,-91,-83,-84,-83,-79,-82,-87,-92,-98,-99,-103,-105,-105,-110,-120,-125,-126,-134,-143,-149,-153,-165,-181,-191,-201,-213,-221,-219,-220,-229,-231,-227,-221,-208,-197,-181,-158,-127,-96,-69,-45,-23,0,19,34,51,61,70,81,83,94,105,108,103,99,100,103,107,104,98,102,106,107,105,104,107,109,107,111,112,109,111,111,109,109,113,111,114,121,123,123,122,124,123,120,117,118,120,121,120,120,122,124,127,127,129,136,146,154,163,168,185,203,203,192,176,164,150,131,107,87,77,76,74,73,72,69,64,59,58,61,60,64,66,65,62,62,60,51,8,-80,-227,-358,-352,-127,273,631,741,756,816,879,831,667,461,321,240,164,91,32,-7,-33,-43,-47,-52,-59,-63,-64,-67,-69,-67,-69,-70,-74,-77,-78,-80,-81,-85,-90,-94,-98,-102,-107,-112,-120,-126,-136,-147,-153,-160,-169,-175,-177,-180,-182,-187,-191,-187,-181,-170,-153,-136,-120,-102,-84,-69,-48,-28,-14,0,11,17,22,27,32,35,35,30,31,35,40,46,46,43,41,41,36,31,32,35,35,31,29,32,35,36,39,36,33,32,37,37,35,33,35,36,41,42,37,33,32,40,45,48,51,53,53,60,69,80,90,94,111,127,128,120,107,95,75,51,31,13,1,-6,-8,-9,-8,-11,-12,-7,-7,-6,-3,-4,-6,-8,-2,-2,-5,-8,-45,-121,-251,-368,-364,-179,183,540,629,594,623,677,647,513,348,246,178,109,40,-17,-55,-79,-89,-92,-96,-103,-106,-110,-112,-109,-106,-108,-111,-110,-114,-119,-117,-116,-116,-117,-121,-125,-124,-128,-130,-133,-141,-150,-155,-161,-172,-181,-185,-187,-189,-191,-191,-192,-188,-180,-172,-162,-145,-125,-106,-92,-79,-65,-51,-38,-26,-14,-8,-4,-1,0,3,5,7,7,10,11,7,5,3,3,6,5,5,7,7,9,7,4,2,2,2,6,7,6,6,7,6,9,8,7,6,9,11,8,6,4,1,5,14,16,18,25,34,42,53,63,71,78,91,106,109,96,77,58,43,31,11,-13,-24,-22,-20,-22,-18,-20,-24,-22,-21,-19,-17,-20,-19,-15,-11,-10,-10,-10,-46,-130,-247,-316,-257,-22,372,694,716,650,639,632,570,434,297,223,169,92,8,-47,-76,-89,-95,-102,-106,-108,-112,-114,-115,-117,-118,-119,-122,-128,-131,-131,-132,-135,-140,-146,-148,-149,-151,-157,-163,-167,-173,-179,-191,-200,-204,-207,-215,-223,-230,-235,-236,-232,-226,-214,-199,-183,-167,-151,-132,-106,-84,-71,-54,-40,-31,-23,-18,-14,-11,-10,-8,-5,-1,1,1,-2,-2,0,0,1,1,1,1,0,-2,-5,-6,-4,-4,-7,-6,-8,-12,-12,-9,-12,-15,-11,-9,-11,-14,-11,-7,-5,-4,-3,-2,0,-1,0,-2,-4,-4,0,0,0,-1,-3,-3,0,9,15,17,27,36,46,54,62,67,75,84,83,77,64,50,31,8,-14,-30,-38,-40,-37,-36,-33,-30,-30,-34,-36,-32,-33,-34,-32,-30,-30,-31,-26,-20,-61,-160,-272,-328,-262,-11,393,700,721,682,700,691,609,446,295,205,133,48,-31,-82,-112,-127,-134,-141,-145,-143,-146,-150,-152,-152,-156,-165,-166,-167,-167,-174,-179,-178,-181,-188,-189,-193,-198,-208,-215,-218,-224,-233,-243,-250,-259,-265,-269,-276,-284,-288,-288,-285,-275,-265,-253,-242,-223,-200,-177,-152,-132,-113,-98,-81,-66,-53,-44,-37,-30,-28,-21,-20,-19,-18,-19,-20,-23,-28,-26,-18,-20,-19,-14,-18,-23,-23,-25,-26,-26,-27,-30,-30,-31,-28,-25,-25,-26,-24,-21,-22,-25,-22,-18,-17,-14,-13,-13,-13,-15,-13,-6,-3,-3,-6,-11,-12,-9,-7,-7,-7,-12,-10,-4,-5,-4,-5,-5,-7,-7,-7,-9,-10,-9,-6,-6,-6,-3,-2,-3,1,10,14,17,19,27,45,63,83,96,93,84,74,70,68,58,42,18,-3,-24,-36,-40,-41,-46,-45,-41,-44,-43,-45,-45,-48,-50,-46,-45,-47,-49,-50,-46,-39,-49,-115,-232,-337,-353,-207,136,555,757,728,720,750,730,617,428,275,179,99,14,-61,-105,-130,-141,-149,-150,-150,-151,-155,-157,-164,-171,-168,-167,-171,-174,-179,-184,-187,-187,-190,-193,-194,-195,-203,-213,-219,-225,-233,-244,-252,-262,-272,-282,-291,-301,-305,-305,-304,-303,-300,-294,-279,-256,-237,-217,-196,-170,-146,-126,-105,-86,-73,-58,-48,-39,-31,-28,-25,-24,-21,-20,-21,-20,-17,-14,-17,-20,-18,-18,-19,-22,-23,-28,-29,-29,-31,-33,-28,-25,-26,-26,-26,-26,-24,-24,-24,-24,-23,-18,-16,-16,-17,-13,-14,-15,-14,-14,-12,-9,-8,-10,-6,-5,-9,-9,-9,-10,-7,-7,-8,-9,-9,-8,-7,-6,-7,-10,-6,-3,-6,-7,-6,-9,-10,-11,-9,-2,6,11,20,25,22,33,49,59,71,88,86,75,67,64,52,33,12,-7,-22,-32,-37,-39,-39,-42,-44,-42,-44,-43,-42,-42,-39,-37,-39,-44,-45,-44,-43,-37,-39,-97,-206,-327,-376,-276,27,449,710,717,709,748,751,661,481,316,211,123,33,-45,-98,-127,-140,-148,-150,-156,-160,-158,-158,-160,-163,-168,-172,-174,-177,-178,-179,-183,-188,-190,-191,-195,-203,-209,-217,-226,-232,-243,-257,-265,-269,-276,-291,-304,-312,-315,-322,-324,-316,-308,-303,-285,-266,-252,-232,-206,-177,-146,-121,-103,-88,-75,-62,-52,-41,-33,-28,-25,-20,-17,-15,-16,-12,-12,-12,-11,-9,-11,-14,-18,-22,-19,-21,-23,-23,-25,-27,-27,-26,-30,-31,-27,-25,-25,-25,-23,-24,-22,-21,-23,-21,-21,-21,-19,-16,-14,-17,-22,-13,-7,-9,-9,-9,-12,-16,-13,-8,-7,-11,-10,-7,-7,-5,-4,-7,-9,-11,-11,-12,-12,-6,-5,-9,-9,-10,-9,-7,5,19,23,26,34,43,50,60,71,78,79,69,53,33,12,-14,-31,-40,-43,-45,-45,-44,-43,-43,-42,-40,-41,-42,-42,-39,-37,-37,-38,-42,-40,-44,-88,-182,-317,-382,-300,-28,349,566,575,578,639,683,622,463,294,198,127,50,-15,-65,-97,-115,-123,-128,-131,-137,-139,-139,-141,-144,-143,-142,-143,-147,-150,-151,-150,-150,-156,-160,-163,-163,-168,-174,-180,-188,-198,-207,-213,-218,-224,-232,-239,-243,-247,-250,-252,-248,-242,-237,-228,-212,-192,-175,-155,-134,-115,-96,-77,-63,-52,-38,-30,-24,-23,-21,-15,-10,-10,-8,-2,-4,-4,-5,-4,-2,-3,-6,-5,-6,-10,-10,-12,-13,-9,-10,-16,-13,-12,-11,-9,-11,-13,-11,-11,-10,-10,-7,-11,-15,-10,-11,-15,-13,-11,-10,-11,-13,-8,-1,-3,-7,-8,-14,-6,0,-3,-5,-13,-16,-12,-9,-3,3,5,5,9,15,25,48,67,75,83,88,87,78,64,46,19,-5,-25,-35,-41,-39,-35,-35,-38,-42,-38,-42,-40,-35,-35,-36,-36,-39,-38,-37,-33,-33,-71,-149,-266,-328,-263,-33,291,478,464,460,518,565,523,393,238,155,105,42,-7,-51,-86,-109,-117,-118,-121,-123,-121,-121,-121,-122,-122,-121,-119,-125,-128,-130,-130,-130,-134,-134,-134,-134,-137,-145,-150,-153,-156,-157,-164,-175,-177,-177,-180,-181,-180,-183,-188,-186,-187,-188,-173,-159,-145,-128,-116,-107,-93,-76,-61,-45,-34,-26,-20,-16,-16,-19,-12,-7,-11,-14,-11,-7,-5,-5,-6,-4,-4,-8,-5,-5,-10,-16,-15,-13,-14,-14,-12,-10,-14,-14,-16,-15,-10,-6,-9,-11,-9,-9,-9,-13,-12,-8,-9,-9,-3,-1,-4,-6,-1,-2,-2,1,-2,1,3,3,4,4,4,-4,-7,-5,2,12,19,20,28,36,49,63,73,79,96,107,104,95,85,72,52,28,4,-12,-25,-35,-36,-31,-29,-29,-31,-30,-27,-29,-34,-32,-29,-28,-22,-21,-21,-11,-23,-84,-184,-247,-208,-40,271,560,583,499,491,508,470,365,237,170,131,83,28,-24,-56,-74,-79,-84,-90,-92,-91,-94,-94,-92,-93,-93,-94,-94,-97,-98,-99,-97,-94,-95,-98,-99,-100,-102,-104,-106,-111,-114,-117,-120,-123,-126,-129,-132,-134,-137,-138,-135,-130,-120,-109,-101,-87,-72,-59,-48,-39,-23,-9,2,7,10,15,19,16,18,23,25,24,24,24,24,26,26,25,26,27,22,21,22,22,24,24,22,20,17,18,20,19,17,19,19,18,19,21,20,16,20,22,27,29,26,23,23,25,27,32,33,32,35,38,41,40,34,32,36,34,35,35,37,39,37,35,38,38,39,37,32,32,36,41,48,54,60,71,83,94,102,111,114,120,128,124,116,108,92,72,51,29,12,1,-3,-3,-2,-2,-2,-2,-2,-1,-4,-4,-3,-3,2,4,3,5,18,1,-70,-160,-205,-149,38,359,668,711,609,580,552,474,351,240,191,145,87,23,-32,-60,-72,-78,-86,-93,-95,-93,-94,-97,-96,-96,-96,-96,-101,-102,-103,-105,-105,-107,-111,-109,-107,-110,-116,-120,-127,-126,-123,-131,-137,-141,-143,-148,-154,-160,-163,-161,-157,-155,-151,-141,-129,-115,-99,-81,-64,-50,-39,-27,-16,-9,-1,5,12,13,12,15,17,20,20,22,21,18,19,24,26,22,22,14,9,12,14,14,13,13,7,4,5,7,6,7,7,4,4,6,9,10,9,14,14,11,11,16,19,16,12,16,23,25,27,28,23,18,21,24,24,25,27,26,26,23,24,22,22,23,25,30,37,33,34,41,46,53,59,66,70,79,91,100,103,116,116,106,96,81,65,49,28,8,-7,-15,-14,-13,-12,-12,-13,-18,-22,-20,-20,-15,-12,-11,-14,-12,-5,-3,-3,-47,-140,-228,-248,-150,100,463,708,679,620,619,589,491,342,236,178,119,54,-14,-62,-89,-98,-107,-114,-112,-116,-118,-116,-118,-119,-124,-128,-129,-135,-140,-142,-139,-140,-140,-143,-144,-151,-159,-157,-160,-164,-174,-183,-182,-185,-189,-192,-199,-206,-214,-217,-214,-214,-210,-207,-197,-173,-157,-144,-124,-102,-88,-75,-59,-49,-42,-33,-23,-17,-17,-26,-29,-20,-15,-18,-17,-17,-17,-17,-23,-26,-27,-24,-17,-18,-20,-23,-24,-24,-22,-27,-30,-26,-34,-40,-38,-37,-32,-31,-36,-39,-32,-29,-33,-37,-33,-26,-26,-25,-21,-18,-12,-14,-16,-12,-6,-4,-6,-7,-4,-5,-9,-13,-11,-10,-7,-5,-5,-6,-10,-16,-16,-9,-4,-5,-7,-5,1,7,17,23,33,46,55,58,60,75,91,90,79,69,54,35,13,-7,-20,-27,-31,-35,-37,-33,-33,-34,-34,-35,-30,-30,-31,-35,-36,-29,-26,-24,-21,-41,-120,-234,-327,-325,-153,218,606,747,707,712,735,696,569,390,258,164,75,-8,-76,-116,-135,-141,-147,-153,-157,-164,-174,-173,-171,-175,-180,-189,-194,-195,-198,-200,-199,-199,-204,-204,-205,-208,-215,-225,-233,-242,-250,-251,-255,-264,-272,-280,-290,-296,-303,-303,-300,-293,-278,-265,-252,-233,-214,-194,-175,-155,-134,-112,-93,-80,-68,-59,-55,-48,-39,-29,-19,-21,-24,-23,-22,-14,-13,-16,-20,-26,-32,-32,-26,-25,-27,-30,-42,-48,-46,-46,-46,-44,-51,-53,-53,-51,-47,-52,-53,-53,-53,-48,-47,-48,-52,-54,-54,-50,-45,-46,-46,-47,-51,-62,-58,-40,-29,-32,-34,-31,-35,-33,-28,-30,-33,-36,-39,-39,-36,-40,-47,-45,-40,-34,-30,-26,-11,4,15,24,36,51,64,61,50,48,39,13,-13,-40,-65,-78,-78,-79,-86,-87,-85,-80,-80,-85,-81,-78,-81,-83,-84,-88,-92,-82,-66,-71,-131,-238,-381,-454,-370,-65,335,551,579,604,684,724,650,470,282,174,94,0,-90,-156,-183,-179,-173,-174,-177,-180,-185,-188,-193,-195,-196,-197,-199,-202,-206,-209,-206,-204,-216,-222,-220,-225,-231,-233,-241,-250,-256,-261,-269,-282,-293,-302,-309,-307,-311,-316,-317,-313,-304,-298,-292,-276,-254,-236,-220,-201,-179,-156,-138,-122,-108,-97,-88,-80,-72,-66,-60,-60,-61,-57,-53,-54,-54,-52,-53,-53,-50,-52,-57,-60,-59,-61,-63,-67,-63,-55,-54,-55,-54,-57,-53,-57,-59,-57,-55,-55,-55,-53,-53,-55,-56,-50,-52,-55,-57,-59,-58,-51,-51,-49,-46,-50,-55,-56,-54,-50,-41,-36,-34,-28,-15,-3,7,18,27,40,50,47,37,23,12,-8,-40,-64,-73,-78,-82,-82,-83,-80,-81,-84,-85,-88,-87,-81,-76,-80,-86,-85,-86,-82,-67,-88,-174,-304,-414,-413,-231,145,527,642,616,643,682,643,503,313,194,124,48,-29,-91,-133,-163,-179,-184,-183,-181,-183,-185,-186,-190,-195,-201,-203,-201,-204,-209,-213,-220,-221,-219,-223,-223,-222,-225,-229,-241,-252,-259,-269,-275,-282,-280,-285,-290,-297,-302,-302,-298,-290,-281,-274,-263,-246,-224,-199,-175,-151,-133,-115,-102,-91,-80,-67,-65,-60,-58,-58,-52,-49,-54,-60,-47,-36,-30,-33,-42,-49,-55,-56,-50,-47,-43,-50,-63,-67,-66,-58,-56,-61,-64,-62,-57,-60,-64,-66,-67,-65,-57,-47,-47,-55,-60,-57,-57,-52,-53,-48,-43,-42,-40,-41,-42,-37,-36,-36,-40,-37,-36,-37,-39,-38,-39,-39,-37,-37,-31,-33,-40,-39,-38,-37,-35,-32,-30,-17,-5,2,12,25,32,42,60,66,60,45,24,6,-8,-30,-53,-56,-52,-57,-62,-63,-58,-58,-60,-61,-57,-57,-56,-58,-62,-65,-61,-56,-47,-62,-156,-301,-421,-440,-251,150,577,764,774,811,866,849,709,483,305,196,100,12,-64,-129,-161,-172,-179,-183,-182,-184,-187,-193,-198,-203,-207,-209,-215,-212,-207,-210,-218,-223,-225,-231,-241,-242,-243,-253,-268,-271,-276,-288,-302,-310,-317,-327,-326,-332,-337,-338,-332,-323,-319,-310,-289,-260,-233,-207,-181,-163,-146,-125,-105,-87,-76,-64,-49,-40,-36,-33,-32,-27,-25,-21,-20,-21,-17,-12,-20,-16,-13,-20,-25,-25,-22,-23,-20,-19,-23,-19,-15,-16,-17,-16,-13,-16,-18,-19,-20,-24,-19,-13,-7,4,0,-11,-7,-10,-11,0,4,-2,-7,-5,-3,-1,-1,-1,1,3,6,4,-1,-1,-1,1,0,-7,-14,-11,-4,1,3,10,22,25,29,30,30,41,59,80,90,85,67,54,36,17,-9,-37,-46,-40,-33,-27,-29,-27,-25,-28,-35,-40,-38,-35,-33,-34,-33,-30,-27,-21,-24,-98,-235,-371,-421,-294,69,527,795,832,862,927,934,818,586,374,244,140,44,-39,-97,-134,-152,-153,-155,-157,-158,-162,-166,-169,-174,-181,-190,-194,-199,-202,-205,-205,-204,-207,-219,-222,-224,-227,-235,-248,-259,-266,-276,-286,-301,-313,-317,-326,-334,-346,-346,-342,-336,-322,-305,-288,-267,-247,-226,-199,-172,-141,-114,-97,-78,-55,-42,-31,-24,-16,-7,-5,-8,-7,-4,3,14,11,6,7,5,4,6,11,6,2,0,-7,-12,-7,2,2,1,-1,2,2,3,2,-5,-8,-11,-13,-2,9,7,7,16,19,14,2,1,8,6,10,21,19,16,22,21,16,14,17,18,17,16,25,31,27,26,28,31,23,14,16,21,26,31,40,53,68,83,92,88,96,111,111,110,103,90,73,51,41,31,27,26,14,4,1,10,15,13,12,12,16,19,15,8,9,14,20,32,22,-53,-189,-328,-375,-246,112,547,818,867,888,941,945,842,622,400,269,183,98,17,-45,-81,-87,-96,-109,-117,-120,-120,-121,-126,-133,-136,-137,-136,-141,-141,-138,-142,-150,-161,-161,-164,-171,-179,-188,-197,-202,-213,-222,-227,-239,-252,-264,-266,-260,-263,-285,-291,-282,-270,-249,-225,-206,-190,-169,-142,-104,-70,-46,-39,-32,-12,11,24,28,33,40,46,49,49,51,56,60,63,61,55,49,48,48,55,60,48,46,44,46,46,52,51,41,33,36,43,50,48,44,48,56,60,48,42,47,55,58,60,61,58,53,55,61,65,72,75,61,54,59,71,79,77,66,62,67,74,76,76,76,79,78,67,60,65,72,71,65,72,82,95,112,126,132,130,135,154,159,156,148,135,111,93,80,65,58,61,56,50,52,57,61,49,44,50,58,64,61,64,64,58,60,69,37,-78,-226,-324,-281,-14,415,791,927,934,974,1001,948,768,527,357,255,174,80,13,-29,-49,-51,-55,-67,-78,-79,-75,-68,-74,-90,-97,-100,-105,-103,-98,-96,-99,-97,-95,-107,-131,-138,-137,-148,-158,-162,-168,-171,-177,-189,-209,-217,-229,-239,-234,-230,-228,-223,-208,-187,-167,-147,-120,-93,-61,-35,-20,3,26,37,48,66,79,82,80,80,93,104,109,105,95,97,101,98,98,102,109,112,110,107,99,91,95,99,94,82,81,84,86,93,100,99,97,96,95,96,98,105,107,105,97,94,100,108,114,118,117,111,106,110,117,122,127,123,115,110,107,112,120,125,121,113,112,115,122,124,118,116,112,110,117,123,122,131,145,160,166,166,175,193,199,196,186,174,161,141,119,98,83,82,84,88,88,92,91,89,91,94,99,93,87,88,87,89,97,105,104,32,-117,-259,-302,-175,172,602,884,945,969,1037,1060,949,711,485,347,259,172,93,35,-6,-25,-27,-31,-41,-52,-59,-63,-63,-62,-66,-68,-73,-77,-77,-79,-83,-90,-96,-103,-111,-119,-130,-136,-146,-161,-172,-178,-187,-201,-212,-222,-233,-238,-249,-255,-249,-238,-230,-221,-203,-183,-156,-130,-110,-88,-59,-32,-4,18,40,56,63,74,87,94,97,98,102,106,109,114,115,120,120,120,122,124,126,122,120,116,114,114,109,113,118,118,117,114,115,116,115,115,119,119,112,116,120,120,123,126,123,124,125,123,122,123,131,133,132,130,129,129,130,128,132,130,130,134,133,131,132,128,128,128,125,122,118,119,123,127,130,135,145,150,152,157,163,170,189,198,195,185,165,143,125,110,93,80,78,78,80,79,76,80,82,81,77,81,84,79,72,68,72,80,85,55,-48,-201,-344,-379,-188,244,697,910,951,1019,1095,1072,918,670,462,330,215,103,21,-30,-60,-73,-79,-88,-93,-99,-106,-110,-109,-113,-121,-126,-127,-130,-136,-147,-153,-158,-164,-166,-169,-175,-191,-206,-212,-224,-238,-249,-267,-281,-289,-301,-312,-320,-329,-338,-341,-331,-313,-298,-285,-267,-240,-208,-177,-143,-117,-92,-70,-54,-37,-19,-1,7,15,24,28,29,32,35,36,37,37,40,40,40,37,33,31,29,28,31,32,30,26,24,25,26,29,29,23,19,21,26,27,31,32,32,35,29,24,27,31,30,31,31,26,24,26,31,37,38,29,26,34,32,28,34,37,40,45,51,58,61,78,103,112,103,83,69,58,41,18,6,-2,-4,-4,-4,0,-2,-6,-6,-7,-9,-10,-5,-1,-5,-9,-10,-4,1,-24,-122,-277,-422,-461,-280,150,608,819,857,922,1008,1003,849,606,404,267,151,42,-45,-102,-131,-137,-142,-143,-155,-159,-163,-171,-172,-173,-175,-181,-187,-187,-190,-195,-198,-209,-216,-219,-224,-232,-244,-258,-263,-268,-282,-296,-309,-322,-332,-341,-353,-361,-368,-369,-363,-353,-342,-331,-312,-285,-261,-235,-204,-175,-146,-119,-96,-78,-60,-45,-33,-19,-14,-13,-8,-4,-7,-6,-3,-1,2,0,-1,1,-7,-11,-8,-2,-3,-7,-9,-8,-7,-7,-7,-6,-1,-2,-6,-6,-6,-8,-7,-5,-4,-8,-7,-3,-10,-5,-3,-5,-1,5,3,0,0,2,9,7,-3,-1,6,12,16,22,29,34,46,72,83,78,60,43,40,32,12,-9,-23,-25,-21,-25,-27,-23,-23,-22,-25,-31,-27,-25,-28,-33,-33,-24,-20,-18,-43,-139,-292,-446,-496,-327,104,591,836,885,949,1034,1032,883,626,401,255,136,23,-66,-118,-151,-167,-174,-183,-178,-184,-192,-199,-204,-210,-213,-221,-222,-224,-231,-233,-237,-245,-254,-262,-266,-269,-281,-293,-306,-320,-340,-353,-359,-374,-385,-400,-409,-415,-426,-427,-416,-409,-400,-378,-361,-339,-309,-271,-239,-212,-192,-172,-147,-119,-87,-63,-58,-53,-44,-36,-30,-26,-18,-15,-17,-17,-22,-30,-30,-24,-19,-23,-28,-34,-32,-19,-24,-35,-25,-20,-19,-29,-35,-30,-30,-33,-29,-32,-36,-35,-43,-42,-41,-39,-21,-10,-14,-22,-22,-25,-28,-35,-40,-36,-32,-27,-14,-3,4,26,45,55,58,38,12,-2,-13,-21,-39,-55,-53,-52,-54,-56,-52,-51,-58,-66,-59,-41,-37,-44,-54,-59,-60,-61,-75,-134,-246,-406,-565,-623,-452,15,531,746,789,862,963,984,864,627,396,237,113,15,-61,-110,-123,-143,-170,-188,-196,-210,-212,-226,-237,-214,-194,-204,-213,-210,-220,-244,-264,-274,-267,-266,-270,-279,-291,-309,-334,-346,-351,-361,-382,-390,-392,-418,-427,-408,-395,-380,-370,-358,-333,-313,-305,-294,-274,-240,-215,-195,-182,-175,-142,-118,-113,-105,-88,-63,-49,-56,-65,-67,-64,-49,-50,-48,-47,-50,-40,-28,-35,-50,-52,-57,-59,-57,-45,-51,-60,-57,-61,-73,-75,-59,-56,-73,-61,-56,-55,-47,-51,-60,-54,-54,-30,-4,4,12,47,89,110,92,65,39,32,18,-6,-19,-46,-84,-84,-63,-92,-121,-67,-40,-60,-59,-35,-55,-55,-27,-19,-50,-60,-48,-45,-65,-129,-273,-481,-610,-520,-171,284,589,719,818,946,1065,1046,859,604,373,211,73,-13,-61,-118,-153,-158,-160,-163,-163,-163,-157,-158,-166,-187,-195,-190,-185,-184,-194,-200,-210,-221,-226,-234,-239,-246,-263,-281,-289,-299,-305,-313,-329,-334,-334,-345,-351,-350,-341,-333,-316,-298,-303,-296,-268,-232,-206,-173,-144,-124,-110,-102,-89,-66,-48,-24,-11,0,4,-6,-7,-10,8,38,45,21,5,3,5,9,14,34,46,24,19,24,22,22,16,12,2,-12,-19,-8,-8,-8,-10,-9,-15,-15,-4,-1,-8,-15,-26,-16,17,49,55,74,92,93,93,85,67,49,38,33,19,-5,-16,-18,-20,-26,-33,-29,-26,-30,-37,-35,-26,-19,-21,-31,-42,-39,-34,-28,-21,-55,-156,-336,-478,-460,-205,270,714,902,937,968,1021,970,816,572,345,208,105,26,-57,-111,-146,-159,-168,-178,-190,-185,-196,-220,-230,-228,-223,-222,-236,-242,-247,-253,-254,-265,-266,-264,-269,-279,-296,-315,-322,-326,-329,-341,-347,-346,-358,-351,-335,-326,-335,-340,-326,-308,-293,-272,-258,-244,-216,-193,-186,-172,-148,-127,-122,-113,-89,-71,-61,-49,-51,-51,-47,-43,-44,-54,-60,-59,-55,-51,-56,-61,-57,-61,-65,-76,-91,-83,-72,-80,-89,-81,-80,-91,-103,-96,-94,-99,-104,-105,-108,-87,-41,-14,7,26,17,1,-7,-19,-32,-35,-53,-85,-112,-122,-126,-131,-142,-154,-160,-167,-165,-164,-165,-172,-167,-154,-163,-174,-176,-185,-187,-183,-189,-239,-374,-573,-735,-740,-483,-66,229,374,530,750,914,896,710,463,259,107,-30,-124,-182,-223,-248,-269,-287,-289,-284,-284,-291,-300,-306,-309,-313,-314,-310,-304,-312,-324,-331,-334,-339,-358,-360,-338,-336,-352,-364,-376,-394,-405,-403,-402,-411,-412,-401,-396,-386,-384,-382,-365,-343,-311,-291,-280,-256,-235,-218,-204,-181,-159,-146,-131,-110,-97,-95,-95,-94,-91,-87,-80,-75,-72,-72,-75,-78,-74,-71,-72,-81,-84,-77,-83,-90,-93,-98,-102,-102,-105,-116,-124,-129,-133,-140,-141,-147,-142,-126,-114,-100,-87,-67,-41,-40,-60,-71,-85,-98,-109,-124,-149,-177,-208,-232,-253,-274,-280,-274,-277,-287,-288,-296,-306,-309,-308,-299,-300,-302,-297,-290,-280,-275,-325,-436,-594,-723,-712,-471,-18,345,439,489,583,680,666,500,258,66,-49,-145,-215,-256,-284,-303,-317,-321,-325,-335,-330,-323,-326,-324,-328,-331,-330,-338,-353,-363,-370,-385,-392,-399,-416,-435,-450,-456,-471,-488,-510,-528,-544,-565,-585,-603,-611,-621,-637,-643,-644,-649,-658,-665,-659,-632,-626,-630,-633,-629,-610,-603,-603,-598,-591,-578,-566,-568,-569,-560,-551,-542,-538,-535,-522,-507,-492,-479,-473,-465,-450,-441,-440,-448,-449,-455,-464,-465,-471,-483,-491,-495,-508,-523,-526,-530,-534,-541,-547,-550,-545,-537,-530,-510,-479,-448,-438,-435,-424,-418,-420,-423,-434,-439,-446,-462,-469,-464,-462,-452,-439,-422,-416,-418,-411,-398,-386,-383,-378,-368,-353,-348,-341,-319,-326,-396,-525,-675,-732,-600,-214,271,518,539,546,594,598,482,263,45,-79,-157,-221,-274,-331,-364,-364,-361,-358,-360,-369,-370,-360,-355,-360,-363,-350,-345,-342,-336,-333,-332,-329,-330,-332,-335,-330,-324,-325,-328,-339,-345,-342,-345,-348,-357,-352,-349,-346,-342,-342,-325,-315,-306,-278,-264,-249,-229,-211,-189,-172,-152,-142,-128,-105,-106,-104,-85,-79,-68,-69,-75,-74,-70,-55,-47,-50,-45,-36,-30,-41,-48,-44,-43,-42,-44,-48,-53,-54,-53,-55,-68,-77,-84,-89,-92,-104,-105,-108,-98,-70,-61,-47,-22,7,24,12,8,19,18,13,-1,-19,-29,-44,-52,-63,-67,-59,-57,-53,-51,-55,-47,-39,-40,-47,-50,-42,-30,-22,-15,3,16,-43,-163,-280,-340,-247,72,511,792,822,827,867,850,741,539,336,216,135,68,2,-52,-74,-84,-93,-101,-111,-113,-118,-114,-118,-131,-127,-120,-117,-122,-127,-123,-129,-134,-129,-129,-130,-134,-134,-137,-143,-159,-172,-174,-172,-185,-198,-190,-186,-189,-192,-197,-196,-183,-159,-151,-134,-105,-83,-65,-55,-42,-18,0,7,18,18,25,24,31,48,46,44,46,45,38,36,40,40,42,43,30,30,26,27,27,18,14,19,21,17,12,14,17,18,19,16,8,15,25,25,20,26,40,43,54,80,108,115,103,110,102,80,67,54,35,23,7,-4,-8,-6,-7,-15,-17,-27,-23,-15,-21,-22,-21,-18,-16,-21,-17,-2,9,-46,-178,-313,-379,-329,-38,423,761,839,856,918,916,799,597,382,255,163,76,-3,-59,-89,-114,-128,-125,-127,-127,-127,-139,-145,-145,-143,-142,-146,-161,-156,-154,-158,-170,-181,-198,-197,-195,-204,-206,-206,-210,-210,-220,-243,-267,-284,-281,-267,-267,-256,-243,-241,-249,-246,-212,-187,-178,-172,-160,-141,-124,-82,-30,-15,-7,9,17,18,23,26,29,28,28,23,22,29,42,59,53,34,33,42,49,47,42,38,40,38,27,25,28,27,38,39,30,26,24,28,36,33,34,38,52,62,66,86,125,148,140,114,102,110,118,112,89,69,55,48,47,38,29,33,32,32,29,25,27,29,34,31,30,33,39,50,67,54,-27,-164,-293,-355,-263,83,538,815,898,940,1027,1068,974,747,484,322,214,124,47,-2,-38,-57,-57,-62,-84,-100,-97,-92,-83,-88,-113,-125,-113,-101,-95,-101,-109,-116,-118,-115,-118,-121,-132,-144,-162,-182,-186,-192,-187,-193,-207,-229,-247,-239,-235,-238,-237,-224,-210,-203,-186,-163,-132,-93,-68,-58,-48,-28,-8,8,20,27,38,34,40,31,21,44,58,58,59,50,40,29,25,23,11,7,7,15,24,12,13,15,17,6,-5,-14,-12,-8,-17,-13,3,-3,9,26,39,59,70,57,38,20,13,14,16,9,-29,-74,-101,-118,-112,-108,-127,-118,-112,-118,-94,-75,-77,-61,-60,-74,-132,-153,-66,-36,-80,-99,-137,-261,-407,-354,-39,407,597,600,582,594,658,660,543,341,140,50,23,-12,59,68,-86,-112,-113,-166,-172,-67,-25,-15,13,-34,-128,-178,-121,-2,-19,-127,-90,-59,-97,-162,-220,-183,-163,-156,-131,-126,-138,-170,-156,-117,-180,-234,-174,-151,-157,-167,-174,-168,-157,-120,-123,-131,-114,-107,-88,-95,-68,13,-1,-49,-69,-63,6,50,81,68,64,73,33,35,57,26,-7,1,42,38,12,24,17,-1,13,53,87,29,24,93,119,89,63,75,113,129,133,146,140,129,133,103,74,54,47,22,-27,-22,-19,-16,16,7,4,-43,-61,-30,13,15,-15,12,30,25,45,19,-96,-272,-390,-295,25,425,650,704,772,833,831,705,480,259,151,104,73,18,-28,-39,-38,-25,-34,-93,-128,-85,-42,-96,-177,-147,-52,12,25,-18,-38,-30,-55,-76,-46,-24,-43,-80,-109,-87,-55,-84,-145,-210,-203,-117,-51,-42,-92,-179,-220,-184,-140,-89,-74,-84,-123,-161,-92,-55,-95,-94,3,75,-12,-83,-72,29,111,99,77,74,83,52,40,70,106,108,69,33,64,126,116,51,-3,-44,-65,11,66,25,68,173,163,39,-12,50,106,46,-84,59,299,336,183,95,163,171,112,39,-28,31,151,107,-106,-167,-85,-43,-82,-93,-68,5,-41,-158,-7,89,52,53,-41,-335,-536,-389,-1,462,701,757,792,804,803,624,501,444,260,194,137,90,44,32,7,-39,-134,-151,-79,-80,-92,-55,-93,-174,-191,-158,-143,-140,-99,-90,-82,-105,-134,-80,-57,-118,-200,-220,-101,-27,-12,-71,-200,-238,-192,-167,-167,-158,-256,-369,-379,-231,-59,-36,-26,-53,-108,-95,-11,23,-28,-21,23,39,47,51,15,47,77,52,41,33,40,66,87,81,34,32,75,94,86,78,77,85,94,105,93,94,122,152,150,153,179,178,163,161,164,150,136,133,126,107,84,72,58,58,41,20,28,27,17,1,1,28,40,14,-20,-14,22,65,79,29,-85,-233,-307,-197,105,485,661,660,681,719,717,622,438,247,127,56,-5,8,26,16,8,-2,-17,-37,-36,-37,-34,-15,-13,-24,-29,-5,11,8,15,20,-7,-22,-12,12,9,-16,-18,-5,-4,14,10,9,3,-18,-31,-38,-25,19,36,12,1,10,32,52,68,63,58,68,89,105,90,54,72,123,153,156,151,143,113,128,164,144,147,172,187,173,151,159,173,167,161,144,145,146,153,137,146,214,271,264,256,225,130,130,279,390,375,328,297,262,231,202,165,154,139,124,127,125,127,133,135,141,137,138,139,145,146,129,147,167,121,4,-151,-182,-33,263,612,734,693,710,757,769,671,475,305,218,172,134,114,72,30,22,43,39,24,16,26,28,20,25,26,37,37,18,24,28,27,26,24,26,22,31,58,56,23,-12,-48,-69,-21,35,22,5,-3,-22,-37,-54,-102,-146,-127,-103,-158,-292,-190,106,199,181,167,171,155,126,123,121,86,50,26,75,114,74,8,42,119,163,132,117,136,154,200,198,143,116,113,120,132,152,179,186,214,260,280,273,252,218,185,184,166,149,140,131,130,108,77,65,62,62,58,51,32,12,6,6,-3,-15,3,44,29,-20,-47,-141,-276,-335,-301,-68,350,569,544,573,655,680,608,444,239,105,45,-1,-27,-61,-54,-58,-76,-56,-81,-133,-142,-133,-94,-81,-90,-84,-73,-83,-131,-151,-135,-125,-131,-127,-128,-137,-151,-179,-200,-195,-172,-194,-231,-234,-227,-224,-234,-246,-231,-231,-250,-261,-264,-250,-254,-250,-200,-140,-123,-142,-152,-105,-47,-47,-69,-77,-51,-21,-26,-22,-18,-9,-8,-16,-50,-67,-15,15,13,0,-20,5,38,30,15,-5,24,78,121,130,68,21,120,215,193,138,114,102,86,86,61,-5,-43,-48,-7,11,-18,-25,-18,-3,-22,-43,-28,-58,-115,-138,-62,-2,-48,-126,-264,-375,-310,-35,365,587,581,607,672,759,723,539,310,122,42,-18,-59,-74,-107,-169,-179,-198,-224,-196,-190,-184,-176,-180,-182,-176,-171,-157,-159,-122,-117,-142,-162,-166,-148,-144,-150,-154,-199,-236,-221,-212,-220,-234,-270,-268,-270,-304,-316,-325,-340,-339,-321,-309,-299,-234,-201,-198,-267,-285,-235,-144,-73,-61,-45,-40,-67,-65,-79,-85,-46,-55,-57,-41,-41,-23,7,6,-11,-49,-53,-82,-85,-41,7,44,63,85,121,87,36,-26,-6,92,135,119,88,44,44,54,-25,-113,-124,-62,-49,-126,-172,-176,-124,-65,-94,-164,-254,-207,-91,-89,-67,-91,-194,-394,-561,-492,-319,92,540,660,743,772,874,880,742,563,327,180,82,-46,-122,-170,-181,-148,-171,-225,-276,-271,-252,-204,-169,-168,-245,-297,-257,-271,-243,-219,-179,-192,-232,-276,-268,-257,-278,-313,-343,-368,-338,-349,-389,-353,-377,-376,-336,-379,-346,-267,-253,-248,-228,-213,-203,-180,-166,-165,-136,-106,-99,-62,-36,-59,-82,-82,-48,-38,-134,-192,-178,-97,-11,-3,-8,-1,26,90,91,18,-77,-133,-55,69,107,131,172,184,110,53,97,144,169,158,146,156,164,116,33,30,63,63,11,-15,-8,4,-6,-25,-38,-24,-20,-16,-4,8,-13,-16,-109,-275,-407,-449,-362,-79,287,506,512,618,841,980,938,723,463,288,215,142,57,-7,-70,-97,-109,-177,-185,-116,-71,-88,-138,-174,-152,-138,-116,-113,-172,-298,-433,-369,-213,-141,-145,-167,-236,-340,-362,-278,-192,-198,-315,-484,-511,-354,-267,-256,-256,-314,-352,-312,-244,-180,-183,-241,-279,-218,-155,-125,-78,-52,-82,-107,-77,-70,-71,-25,25,1,4,42,31,1,-5,-16,-51,-51,-64,-80,-113,-113,-53,-68,-83,-119,-142,53,159,153,124,76,68,93,-17,-76,-23,46,14,5,61,100,81,26,-28,-87,-97,-84,-69,-80,-76,0,19,-15,-91,-164,-222,-268,-398,-516,-607,-393,170,614,734,815,903,1012,1018,833,597,470,395,229,52,-42,-109,-176,-252,-277,-199,-159,-185,-279,-307,-286,-276,-261,-274,-275,-287,-344,-365,-362,-290,-238,-260,-280,-302,-382,-475,-466,-383,-374,-416,-457,-496,-535,-542,-512,-498,-487,-464,-426,-411,-428,-445,-467,-453,-362,-367,-442,-351,-153,-7,72,110,107,99,65,50,24,-1,15,5,22,54,36,19,11,23,21,-2,13,68,100,110,123,171,191,187,158,125,90,49,13,-1,25,51,36,70,87,87,77,65,80,68,27,16,53,73,53,6,-19,27,101,84,-28,-211,-364,-466,-366,90,603,839,907,963,1044,1014,897,724,525,355,184,30,-75,-91,-35,9,-9,-51,-72,-80,-100,-141,-110,-83,-72,-106,-145,-143,-155,-138,-101,-114,-161,-223,-216,-195,-222,-230,-249,-249,-251,-281,-254,-249,-252,-275,-302,-325,-314,-274,-245,-241,-252,-240,-190,-132,-113,-110,-114,-83,-42,-32,-22,-4,15,32,54,58,58,78,95,78,61,66,67,67,70,74,62,52,46,35,28,43,84,128,135,145,129,87,81,93,137,169,172,148,116,112,118,117,102,96,112,128,123,98,111,146,136,118,102,100,118,116,24,-161,-339,-348,-150,275,676,851,945,1026,1132,1143,972,686,412,244,131,39,-28,-79,-102,-114,-122,-127,-118,-96,-87,-113,-142,-124,-109,-105,-100,-100,-81,-75,-86,-92,-98,-107,-108,-99,-99,-128,-137,-128,-143,-154,-155,-165,-180,-182,-183,-202,-194,-181,-173,-166,-154,-157,-165,-158,-133,-92,-50,-38,-47,-40,-25,-29,-46,-50,-62,-68,-64,-60,-45,-33,-33,-29,-26,-19,-16,-16,-1,16,28,36,58,96,128,127,131,124,134,138,130,121,100,71,71,64,45,44,43,22,17,16,3,6,14,-7,-5,2,-6,-2,8,-8,-83,-236,-384,-412,-245,148,555,679,633,622,671,637,480,290,140,69,11,-44,-89,-117,-132,-145,-138,-137,-124,-128,-135,-122,-113,-126,-137,-127,-104,-116,-167,-140,-62,-30,-56,-78,-91,-86,-74,-85,-126,-151,-175,-175,-128,-111,-115,-110,-96,-119,-140,-150,-162,-189,-183,-165,-143,-141,-163,-162,-135,-133,-118,-83,-52,-2,1,-8,-18,-4,-2,3,-25,-29,-15,-48,-87,-70,-33,-13,-6,-15,-27,-50,-40,-13,7,7,-10,-72,-181,-274,-192,-66,-129,-223,-162,-32,14,20,-16,-38,-37,-40,-36,-59,-65,-71,-86,-89,-82,-73,-88,-89,-91,-184,-334,-468,-492,-290,128,579,785,746,717,762,757,625,395,190,75,-5,-99,-179,-195,-167,-184,-206,-221,-219,-231,-248,-242,-229,-209,-209,-221,-248,-296,-304,-277,-265,-282,-326,-364,-419,-419,-347,-314,-304,-292,-244,-239,-264,-292,-321,-346,-372,-396,-400,-404,-401,-388,-374,-344,-306,-279,-262,-254,-258,-218,-166,-134,-136,-115,-77,-44,-16,-19,-24,-41,-78,-120,-118,-68,-56,-77,-58,-11,4,21,36,43,41,53,66,68,65,44,28,33,41,62,46,11,-21,-29,-6,-29,-28,-1,0,3,3,-11,-18,-19,-23,-20,-29,-29,-23,-47,-173,-379,-529,-489,-220,257,683,816,828,886,988,973,787,535,315,178,71,-29,-106,-162,-167,-143,-173,-199,-173,-161,-150,-139,-154,-167,-177,-171,-187,-189,-168,-144,-156,-184,-193,-188,-200,-200,-210,-231,-252,-264,-252,-241,-252,-290,-316,-309,-299,-304,-304,-302,-292,-301,-303,-293,-288,-284,-277,-250,-222,-216,-214,-206,-196,-172,-155,-153,-141,-154,-174,-187,-223,-234,-198,-202,-220,-260,-278,-227,-166,-155,-138,-70,-25,-19,-14,-1,7,19,36,40,7,-8,-16,-34,-40,-47,-43,-23,-44,-61,-30,-19,-18,-20,-81,-140,-181,-193,-188,-211,-312,-468,-674,-800,-782,-475,29,370,505,582,718,838,818,652,390,193,74,-26,-107,-160,-205,-221,-170,-116,-141,-167,-159,-151,-149,-144,-144,-151,-147,-139,-163,-173,-144,-106,-125,-149,-164,-159,-156,-172,-191,-201,-164,-167,-221,-297,-369,-414,-426,-445,-445,-463,-497,-470,-425,-367,-349,-375,-396,-373,-264,-217,-186,-155,-128,-90,-57,-45,-27,-11,-21,-5,24,38,56,53,20,22,60,72,67,81,104,135,163,169,176,205,211,234,204,169,105,44,16,17,-16,-84,-106,-122,-138,-137,-111,-110,-115,-125,-120,-113,-126,-159,-183,-192,-208,-322,-498,-540,-288,181,540,677,752,791,873,941,816,595,414,272,126,10,32,38,-29,-60,-58,-45,-15,-22,-59,-71,-46,-29,-53,-115,-156,-204,-272,-319,-367,-394,-377,-333,-328,-353,-367,-352,-313,-245,-243,-315,-275,-165,-184,-249,-228,-148,-122,-153,-152,-170,-160,-172,-151,-115,-106,-87,-51,22,37,20,-55,-74,53,124,162,162,111,73,60,66,74,87,73,44,36,19,-37,-37,59,94,47,51,76,89,76,8,-71,-20,87,114,53,33,32,45,82,122,116,83,17,-3,71,63,52,80,125,136,151,120,-26,-188,-233,-149,44,400,749,855,885,918,915,868,764,504,213,61,-4,-97,-154,-101,-46,-28,-23,-5,20,10,-8,-57,-28,-12,-29,11,57,27,-3,-32,-74,-121,-74,-15,-2,-27,-138,-218,-175,-90,-69,-67,-55,-91,-132,-175,-186,-182,-139,-110,-130,-154,-216,-246,-137,-32,-55,-96,-78,-87,-103,-60,-87,-175,-130,-17,78,63,16,126,218,224,177,116,108,130,141,149,154,200,260,269,271,248,268,317,293,257,224,204,210,199,178,147,97,77,84,82,77,53,7,-63,-69,-56,-60,-40,-30,-87,-162,-312,-445,-493,-327,149,587,768,840,938,1056,1037,823,567,442,382,249,88,-24,-75,-54,-7,-20,-41,-62,-87,-92,-110,-116,-61,-51,-122,-157,-112,-62,-39,-49,-94,-129,-121,-94,-68,-98,-109,-107,-140,-162,-221,-294,-300,-259,-249,-258,-244,-221,-178,-159,-184,-231,-187,-101,-101,-130,-130,-113,-76,-17,3,-22,-54,-43,13,67,59,-6,29,91,83,104,137,106,73,134,223,211,234,251,265,269,247,223,224,222,222,197,166,159,151,141,118,106,105,95,86,91,102,98,67,27,-21,-52,-7,80,61,-61,-210,-346,-355,-156,268,615,730,789,876,933,920,781,557,379,262,178,104,62,21,-36,-48,-57,-111,-124,-96,-64,-51,-73,-82,-83,-115,-113,-42,1,-17,-70,-97,-76,-66,-83,-105,-108,-125,-151,-161,-140,-134,-155,-167,-156,-168,-196,-191,-175,-169,-181,-207,-251,-221,-150,-131,-115,-82,-60,-57,-61,-41,-33,-71,-61,53,138,126,97,66,44,48,92,136,98,74,81,129,171,175,159,205,238,226,199,169,166,156,154,169,153,98,68,43,38,72,77,49,33,47,50,18,-17,-20,4,21,-28,-124,-274,-431,-501,-342,139,553,655,752,896,1022,974,760,565,421,278,193,121,58,14,-17,-43,-67,-119,-126,-83,-52,-79,-108,-98,-94,-86,-96,-76,-44,-12,-18,-61,-80,-88,-107,-110,-105,-112,-117,-127,-138,-157,-138,-94,-106,-143,-157,-140,-136,-174,-201,-209,-233,-216,-159,-141,-153,-106,-43,-21,-1,39,31,6,50,77,70,50,54,60,35,49,91,112,106,95,98,110,127,134,152,183,194,196,234,205,173,178,158,106,58,55,78,63,41,17,15,23,20,12,3,2,-30,-44,-3,31,-29,-162,-365,-511,-429,-95,381,620,662,724,849,922,821,620,436,295,185,98,31,23,-22,-79,-122,-136,-96,-91,-122,-137,-130,-105,-119,-97,-41,-38,-69,-94,-97,-78,-79,-94,-115,-118,-90,-91,-106,-120,-140,-152,-161,-134,-125,-156,-152,-146,-166,-155,-153,-165,-167,-134,-104,-112,-151,-187,-191,-126,-40,-57,-124,-88,-11,19,14,-11,-19,-7,-13,-29,-57,-48,49,123,89,98,171,201,188,149,124,137,147,142,122,113,98,81,81,68,64,53,21,2,3,-5,-14,16,21,7,2,2,22,37,-20,-160,-321,-400,-322,-7,380,541,589,687,802,814,705,506,337,241,138,30,-15,-18,-51,-79,-79,-82,-87,-99,-115,-112,-108,-118,-110,-109,-112,-110,-110,-100,-97,-110,-105,-91,-98,-122,-131,-120,-112,-124,-154,-171,-175,-180,-179,-186,-211,-227,-211,-191,-202,-210,-208,-211,-218,-207,-231,-225,-174,-141,-108,-93,-134,-130,-57,-12,-47,-66,-50,-1,20,-4,-32,-47,-14,57,87,83,111,108,79,103,139,168,171,142,92,50,11,-63,-77,-14,12,-15,-37,-56,-81,-92,-73,-76,-84,-121,-125,-70,-36,-41,-95,-182,-321,-437,-326,55,433,556,587,689,733,676,585,438,238,122,50,-73,-121,-123,-81,-79,-117,-147,-169,-172,-164,-165,-163,-167,-172,-182,-218,-231,-184,-136,-134,-164,-199,-198,-184,-163,-152,-156,-163,-184,-244,-376,-416,-250,-135,-160,-180,-181,-208,-237,-229,-221,-208,-207,-233,-246,-229,-191,-183,-210,-214,-193,-187,-199,-204,-132,-25,-20,-51,-53,-69,-69,-61,-51,-29,-19,35,83,86,69,89,60,-33,-1,82,66,49,35,0,-30,-51,-57,-55,-40,-30,-47,-53,-69,-128,-181,-130,-37,18,21,-10,-76,-185,-332,-414,-289,60,434,562,579,613,663,641,547,391,255,171,67,-49,-112,-123,-165,-171,-126,-106,-146,-166,-175,-211,-254,-285,-262,-218,-185,-199,-252,-214,-173,-148,-154,-187,-170,-134,-165,-225,-225,-208,-206,-241,-264,-241,-176,-161,-176,-157,-169,-211,-247,-219,-181,-171,-208,-223,-240,-204,-130,-88,-95,-107,-72,-56,-97,-136,-154,-105,-52,-47,-49,-39,-40,-54,-49,-18,14,23,42,62,69,60,38,25,32,10,-29,-112,-191,-141,-45,-63,-133,-159,-138,-71,-16,-35,-77,-92,-96,-112,-123,-97,-68,-106,-197,-354,-441,-355,-47,370,583,571,568,546,537,592,447,188,42,-33,0,28,-3,-22,-55,-103,-115,-116,-155,-169,-88,-37,-69,-84,-68,-68,-102,-124,-122,-137,-146,-106,-73,-90,-139,-137,-120,-134,-168,-205,-213,-187,-165,-193,-215,-228,-243,-272,-268,-247,-228,-190,-185,-183,-151,-139,-148,-135,-135,-138,-135,-128,-108,-94,-112,-78,-35,-43,-52,-80,-65,-17,-3,-3,3,3,24,84,180,202,154,85,70,110,114,110,86,30,-7,-41,-48,-47,-31,-13,-36,-51,-66,-74,-72,-100,-133,-91,-41,-33,-72,-199,-285,-288,-229,148,546,589,525,555,734,836,748,522,330,232,138,60,47,6,-36,-51,-60,-44,-57,-71,-86,-101,-108,-96,-81,-73,-70,-63,-63,-97,-117,-131,-115,-104,-122,-129,-120,-111,-127,-152,-171,-177,-201,-246,-271,-267,-243,-192,-169,-175,-161,-168,-177,-168,-180,-199,-213,-239,-206,-151,-120,-85,-82,-124,-129,-60,-50,-88,-70,-42,-36,-37,-63,-34,35,64,74,105,151,151,123,103,89,66,47,11,8,40,37,5,-20,-9,3,3,-21,-43,-35,-26,-32,-36,-28,-39,-49,-21,-21,-119,-273,-404,-387,-172,196,510,585,574,629,720,750,633,388,126,-31,-2,11,-77,-123,-103,-58,-14,-3,-51,-117,-109,-81,-122,-154,-162,-103,-75,-105,-109,-94,-107,-106,-107,-127,-135,-123,-104,-129,-162,-189,-213,-205,-208,-221,-255,-281,-291,-300,-325,-346,-363,-360,-353,-358,-363,-341,-297,-255,-251,-245,-235,-226,-220,-201,-163,-151,-147,-134,-141,-116,-67,-66,-87,-76,-38,-14,-7,22,50,29,30,36,55,57,34,17,23,-7,-28,-18,-36,-74,-96,-85,-70,-55,-91,-151,-180,-235,-268,-324,-319,-280,-293,-389,-516,-632,-576,-356,-54,126,126,122,175,292,403,317,84,-55,-73,-125,-181,-206,-189,-197,-227,-229,-261,-275,-244,-214,-223,-247,-234,-256,-271,-211,-158,-159,-177,-188,-165,-195,-263,-310,-392,-466,-591,-729,-828,-903,-1058,-1143,-1142,-1097,-1097,-1174,-1164,-1113,-1099,-994,-855,-806,-773,-734,-661,-643,-627,-575,-540,-499,-385,-365,-386,-382,-398,-373,-329,-285,-235,-230,-223,-218,-182,-150,-154,-130,-111,-93,-80,-182,-316,-396,-437,-505,-525,-500,-475,-462,-483,-531,-566,-529,-428,-377,-363,-322,-344,-383,-331,-174,-114,-115,-100,-131,-258,-408,-414,-236,-29,200,350,331,379,501,596,630,469,251,90,-38,-108,-125,-128,-164,-233,-274,-188,-162,-278,-338,-409,-501,-517,-532,-608,-692,-767,-757,-681,-610,-581,-573,-513,-491,-546,-553,-451,-270,-190,-206,-234,-276,-317,-337,-319,-304,-301,-308,-268,-222,-232,-278,-284,-287,-220,-209,-172,-117,-150,-171,-210,-280,-302,-260,-292,-312,-325,-353,-352,-315,-283,-286,-301,-256,-193,-95,2,35,56,94,115,121,131,88,45,42,60,46,83,97,52,-10,-3,31,24,5,23,30,19,46,101,88,93,89,-3,-154,-208,-124,100,433,643,653,660,674,693,649,463,250,118,27,-48,-100,-114,-107,-107,-53,-21,-14,-47,-87,-83,-22,-21,-6,24,3,-15,-17,-3,-4,-9,-11,-27,38,55,10,-49,-79,-46,-4,-2,-35,-35,-48,-107,-178,-273,-320,-332,-345,-375,-418,-385,-350,-334,-314,-280,-236,-183,-160,-137,-108,-66,-3,-24,-36,2,47,119,175,159,154,218,231,202,217,309,387,347,275,323,401,399,329,282,266,245,225,225,238,220,199,171,125,31,-134,-315,-445,-437,-512,-610,-579,-491,-442,-522,-701,-763,-622,-241,216,448,518,553,601,654,612,439,253,159,147,116,98,92,26,-14,-34,-75,-69,-9,46,53,17,-38,-65,-66,13,-3,-57,-24,-102,-233,-355,-431,-498,-591,-650,-673,-676,-672,-683,-700,-688,-666,-617,-549,-508,-511,-480,-408,-381,-342,-284,-217,-190,-171,-140,-105,-86,-67,-47,-23,0,28,45,67,82,89,118,144,149,151,163,193,214,215,244,281,285,281,270,200,40,-121,-255,-348,-429,-568,-752,-833,-763,-703,-699,-707,-678,-638,-581,-521,-474,-438,-390,-316,-217,-160,-208,-367,-489,-422,-123,353,679,720,729,801,865,835,702,518,333,232,171,142,131,103,76,56,9,-8,-10,5,6,32,80,53,-40,-162,-272,-297,-292,-359,-411,-386,-393,-399,-348,-339,-326,-281,-249,-242,-226,-173,-136,-124,-127,-115,-43,1,0,-18,-40,-25,-14,-28,-45,-29,19,61,36,7,31,90,100,125,167,147,163,180,170,179,174,171,215,230,229,251,292,326,281,197,111,6,-84,-170,-259,-331,-391,-403,-381,-350,-334,-328,-324,-308,-200,-61,0,5,20,51,95,135,117,37,-97,-229,-208,10,398,783,910,925,967,1000,965,790,565,432,319,217,189,152,99,34,9,13,19,46,95,121,87,14,-27,-55,-102,-137,-177,-221,-254,-281,-283,-249,-256,-238,-192,-148,-130,-126,-111,-92,-63,-49,-61,-49,-39,-28,-9,-37,-78,-72,-55,-48,-56,-42,-11,11,42,59,72,83,89,74,69,80,95,134,125,112,147,184,199,192,189,190,210,261,279,282,279,288,286,246,196,112,26,-17,-43,-63,-112,-144,-140,-100,-34,2,1,0,35,48,48,51,93,102,-14,-171,-272,-240,27,476,780,851,872,972,1079,1055,868,625,472,332,216,182,133,61,43,45,62,47,27,57,31,0,0,-3,-33,-41,-94,-127,-111,-127,-126,-82,-76,-74,-70,-77,-91,-91,-99,-75,-63,-58,-68,-92,-111,-55,-1,2,4,-13,-54,-68,-32,1,-31,-25,12,1,-2,3,8,37,51,54,62,80,88,103,179,175,182,187,129,132,215,271,297,270,255,250,278,322,298,250,210,168,137,115,74,19,13,9,6,29,87,121,95,61,21,23,109,105,96,23,-137,-202,-130,126,537,771,739,709,748,798,744,531,322,222,188,107,47,27,18,-4,-4,34,36,-11,-29,-35,-56,-99,-154,-230,-304,-338,-343,-349,-390,-404,-374,-359,-350,-339,-331,-303,-260,-264,-265,-244,-269,-257,-205,-203,-230,-222,-184,-159,-158,-137,-121,-120,-118,-93,-60,-55,-71,-82,-62,-49,14,58,58,73,60,52,72,79,68,90,122,133,145,158,148,30,-145,-261,-330,-443,-550,-626,-676,-741,-820,-885,-926,-916,-914,-900,-834,-752,-728,-705,-624,-569,-544,-506,-486,-445,-388,-402,-502,-614,-560,-280,193,566,652,669,729,775,727,548,361,226,145,77,3,-16,-31,-69,-99,-194,-312,-447,-582,-692,-769,-838,-899,-953,-993,-1017,-1039,-1021,-1007,-1023,-953,-886,-880,-871,-850,-797,-744,-710,-638,-595,-579,-533,-476,-417,-365,-321,-268,-225,-248,-251,-218,-195,-148,-130,-146,-157,-123,-89,-87,-36,0,1,32,44,65,91,99,98,91,90,111,132,46,-91,-217,-303,-391,-483,-562,-593,-605,-604,-598,-581,-567,-575,-591,-574,-514,-466,-410,-377,-345,-275,-219,-195,-144,-78,-34,-19,4,-46,-139,-257,-347,-330,-92,417,817,873,865,958,1043,1005,817,576,419,336,233,150,111,71,46,38,50,57,40,8,-6,-17,-53,-118,-197,-242,-253,-272,-297,-294,-291,-295,-269,-239,-239,-235,-214,-172,-149,-165,-156,-107,-93,-115,-110,-95,-90,-93,-102,-107,-86,-67,-77,-75,-46,-10,14,34,48,60,72,93,108,115,137,166,184,183,193,201,205,246,271,275,296,341,370,377,375,367,357,347,329,307,252,168,107,65,17,-27,-57,-69,-75,-72,-75,-70,-70,-66,-45,-14,17,13,-58,-200,-292,-250,47,540,856,907,905,961,1018,979,809,591,467,376,290,213,157,135,124,135,127,96,88,86,76,59,53,72,95,108,119,117,97,84,84,85,92,65,12,8,-8,21,29,-10,-43,-97,-143,-138,-124,-108,-81,-78,-81,-67,-77,-75,-57,-53,-41,-48,-40,-6,33,79,135,125,113,128,122,121,134,159,178,196,219,237,256,269,284,304,335,333,336,348,343,327,316,293,273,251,228,196,175,157,151,168,173,187,196,187,172,173,192,220,230,194,126,30,-66,0,250,656,905,837,747,766,793,731,573,410,328,288,233,155,118,110,86,69,70,84,72,60,71,81,88,90,103,122,108,83,96,105,109,88,85,105,106,89,80,73,61,65,87,108,86,52,57,57,70,61,50,42,31,38,16,-4,21,49,56,44,60,78,89,113,134,146,160,180,187,196,208,200,217,245,255,277,299,300,288,289,304,308,300,305,303,263,223,198,185,169,157,161,167,161,155,149,146,146,148,151,143,145,150,106,8,-120,-141,19,335,663,728,635,623,685,722,625,444,309,248,198,142,78,53,75,81,71,54,50,86,100,86,79,79,79,71,56,69,84,81,72,73,77,67,55,46,27,11,19,25,5,-18,-22,-32,-61,-82,-67,-87,-135,-148,-137,-128,-110,-77,-45,-27,-34,-49,-57,-14,3,10,48,89,95,93,91,106,111,111,135,166,190,195,207,244,261,243,234,252,244,229,205,189,205,194,157,140,93,66,45,3,-48,-95,-89,-53,-55,-52,-57,-21,36,26,-45,-163,-348,-418,-246,150,538,667,648,645,728,816,755,571,390,282,196,114,55,4,-34,-55,-51,-57,-64,-63,-74,-92,-89,-73,-75,-90,-98,-89,-87,-99,-101,-99,-95,-105,-127,-142,-129,-134,-136,-143,-160,-197,-238,-261,-304,-350,-376,-387,-398,-405,-411,-416,-408,-388,-360,-349,-338,-310,-268,-230,-197,-172,-155,-123,-84,-41,-10,6,30,53,75,96,116,146,182,215,236,238,242,236,243,232,207,225,238,199,147,126,116,110,98,82,89,118,113,101,108,102,78,78,114,100,-17,-186,-307,-252,32,490,804,799,742,775,852,803,620,422,290,216,140,64,22,5,-1,-10,-24,-35,-37,-32,-34,-36,-33,-34,-36,-37,-33,-38,-47,-49,-51,-60,-69,-66,-71,-77,-81,-79,-80,-87,-93,-99,-116,-129,-129,-124,-129,-133,-142,-149,-141,-134,-130,-124,-119,-115,-109,-100,-81,-61,-60,-53,-35,-17,-10,3,22,28,27,32,59,98,122,147,177,203,213,208,215,226,205,186,177,154,125,95,81,81,63,56,52,37,37,55,61,34,30,33,36,39,30,-11,-108,-232,-252,-93,254,599,653,557,547,598,584,448,249,128,94,63,25,-16,-47,-56,-58,-54,-45,-27,-38,-55,-22,3,5,-5,-7,-5,-5,7,10,-6,-12,-10,-23,-21,-18,-25,-42,-40,-61,-65,-52,-61,-69,-78,-91,-103,-101,-107,-120,-128,-131,-119,-120,-119,-115,-116,-105,-107,-80,-55,-45,-38,-28,-20,9,29,26,30,40,67,89,92,110,143,159,163,157,151,145,125,117,105,83,72,36,3,2,-3,-25,-24,-17,-21,-13,2,-10,-37,-53,-17,25,-9,-88,-197,-215,-108,140,480,581,467,439,488,519,436,276,172,143,120,76,28,-11,-44,-55,-51,-61,-62,-53,-65,-72,-77,-89,-90,-72,-70,-73,-65,-62,-61,-48,-49,-57,-46,-23,-42,-68,-79,-92,-100,-113,-114,-76,-66,-100,-118,-128,-151,-157,-143,-136,-147,-155,-134,-137,-166,-162,-121,-90,-78,-79,-70,-44,-16,-6,-7,-4,-7,17,48,56,65,92,123,159,161,156,157,164,156,150,134,90,60,49,20,-9,-2,1,0,7,9,3,-6,-18,-13,-7,-7,-5,8,-28,-120,-263,-309,-166,141,474,536,426,429,511,560,490,309,147,75,39,6,-30,-57,-72,-95,-125,-118,-114,-118,-128,-135,-121,-91,-79,-94,-93,-102,-105,-100,-125,-151,-173,-201,-218,-222,-221,-216,-220,-236,-246,-246,-233,-218,-182,-171,-186,-202,-210,-213,-211,-197,-189,-176,-177,-187,-194,-173,-151,-135,-123,-95,-85,-89,-88,-69,-48,-39,-23,5,13,39,85,113,140,133,91,91,100,98,96,58,26,13,5,-23,-43,-44,-50,-56,-39,-38,-57,-72,-64,-53,-47,-33,1,2,-73,-196,-354,-383,-205,57,223,189,201,334,461,506,405,257,167,90,14,-55,-91,-110,-107,-104,-112,-112,-118,-136,-127,-129,-138,-145,-153,-159,-140,-125,-131,-134,-122,-127,-160,-170,-151,-159,-180,-185,-174,-189,-198,-197,-192,-170,-165,-196,-240,-237,-218,-203,-182,-171,-159,-159,-167,-163,-154,-161,-135,-84,-77,-76,-53,-36,-12,10,-5,-5,35,56,62,81,132,181,199,188,171,162,142,121,119,108,86,40,-6,-37,-50,-46,-43,-34,-39,-52,-71,-86,-94,-102,-99,-88,-54,-49,-104,-211,-338,-346,-145,144,341,283,231,314,426,461,351,157,47,21,-42,-121,-179,-181,-157,-154,-155,-150,-162,-160,-159,-153,-135,-130,-143,-163,-171,-169,-162,-145,-134,-123,-135,-155,-153,-160,-181,-177,-175,-188,-171,-163,-161,-164,-186,-189,-185,-186,-175,-182,-194,-197,-192,-195,-188,-190,-166,-161,-135,-103,-108,-117,-110,-88,-60,-45,-47,-37,-18,5,37,53,76,110,108,112,109,131,129,114,101,99,67,33,16,7,0,-18,-7,-7,-11,-12,-10,1,12,29,35,60,70,-2,-131,-260,-238,-26,288,510,475,407,435,503,498,333,133,45,66,52,12,-15,-42,-56,-49,-27,-23,-19,-25,-39,-39,-47,-37,-29,-41,-39,-4,8,0,-20,-23,-10,-4,2,5,-10,-26,-28,-37,-26,5,14,-10,-20,-23,-26,-35,-43,-47,-50,-54,-56,-52,-43,-33,-34,-35,-27,-30,-36,-32,-15,4,15,37,51,66,91,112,127,138,166,210,225,215,190,174,163,156,150,119,84,63,49,37,19,-10,-22,-17,-21,-22,-4,5,8,4,-2,9,24,-10,-81,-205,-285,-193,99,465,574,483,473,527,520,409,239,93,36,7,-15,-53,-85,-93,-91,-81,-70,-63,-59,-66,-72,-69,-58,-61,-60,-40,-24,-19,-19,-30,-33,-24,-26,-22,-15,-10,-7,-9,-16,-28,-25,-21,-30,-37,-50,-60,-47,-48,-51,-58,-75,-86,-86,-73,-65,-64,-71,-87,-85,-68,-73,-73,-51,-22,-14,-7,16,40,53,71,92,111,135,140,132,128,117,92,84,90,72,44,19,7,-3,-8,-22,-41,-46,-43,-40,-28,-16,-20,-25,-5,24,23,-47,-162,-258,-237,-41,304,589,570,453,461,522,482,332,180,118,89,60,14,-22,-52,-70,-79,-81,-88,-82,-75,-79,-72,-49,-32,-22,-23,-38,-44,-30,-21,-20,8,27,16,6,-5,-17,-18,3,20,-7,-27,-29,-32,-37,-65,-80,-66,-58,-56,-65,-70,-80,-92,-96,-83,-82,-99,-103,-88,-66,-67,-62,-63,-49,-26,-32,-32,-13,23,48,54,50,101,129,122,85,6,12,54,50,14,-13,-35,-51,-43,-54,-68,-91,-112,-141,-147,-122,-88,-109,-84,-40,-21,-81,-158,-197,-201,-144,-22,179,346,342,300,356,405,347,195,43,9,11,-11,-50,-75,-97,-123,-119,-128,-129,-106,-90,-90,-73,-57,-69,-87,-125,-146,-81,4,-18,-81,-75,-42,-62,-92,-69,-11,-24,-85,-84,-43,-6,0,-80,-121,-53,-73,-146,-150,-84,-90,-120,-102,-72,-98,-134,-76,-26,-55,-97,-55,-30,-58,-76,-48,-11,37,88,100,78,56,35,78,145,153,160,175,149,97,24,12,65,74,72,28,-32,-4,23,20,-9,-34,-37,10,113,109,8,-37,81,67,-141,-333,-334,-109,154,331,388,409,546,719,757,636,420,265,142,90,52,-15,-28,-31,-57,-73,-29,-22,-37,-55,-52,1,6,-91,-108,-27,17,-25,-58,-108,-110,-38,33,22,-18,-40,-57,-67,-90,-54,18,-25,-96,-111,-53,-35,-62,-108,-153,-135,-142,-107,-61,-60,-33,-30,-69,-58,-39,-36,-34,-34,-25,17,50,26,3,8,37,62,97,129,164,167,141,145,148,128,82,45,30,19,-11,-23,-22,-15,-25,-39,-24,-37,-62,-56,-56,-20,-9,-40,-42,-57,-123,-214,-257,-202,-57,131,287,244,230,346,420,369,218,62,-16,-48,-70,-84,-90,-119,-151,-160,-136,-84,-93,-135,-128,-107,-82,-91,-133,-103,-67,-76,-101,-123,-88,-63,-42,-36,-75,-107,-102,-70,-47,-71,-121,-142,-117,-82,-70,-88,-111,-135,-120,-109,-152,-127,-117,-98,-78,-99,-109,-98,-106,-77,-30,-20,-24,-41,-50,-62,-71,-37,-2,1,40,108,130,104,81,83,92,86,41,1,-17,-21,-31,-63,-108,-122,-103,-87,-73,-76,-87,-127,-161,-145,-128,-91,-42,-11,-6,-40,-88,-100,-75,6,72,-39,-103,-32,8,-55,-147,-220,-228,-141,-66,-74,-144,-163,-151,-119,-95,-104,-125,-145,-111,-89,-99,-84,-49,-51,-94,-120,-84,-54,-57,-35,-4,-6,-20,-51,-25,-32,-49,-41,-7,16,-14,-47,-25,-59,-99,-89,-76,-111,-97,-42,-63,-117,-123,-112,-115,-108,-94,-101,-107,-89,-75,-64,-56,-33,20,14,-12,7,60,88,74,65,85,83,72,55,42,-10,-68,-76,-61,-59,-107,-141,-132,-157,-136,-104,-92,-106,-122,-124,-117,-96,-93,-82,-36,-77,-60,13,39,72,-22,-185,-231,-248,-303,-345,-349,-329,-279,-240,-195,-177,-150,-131,-132,-130,-150,-142,-120,-107,-109,-87,-72,-86,-94,-92,-83,-66,-48,-45,-93,-97,-56,-12,-13,-31,-19,-13,-15,6,1,-23,-35,-34,-23,-28,-59,-79,-66,-44,-19,-33,-39,-46,-74,-84,-81,-85,-85,-84,-63,-31,-29,2,23,-8,0,49,78,81,89,90,83,97,91,76,29,25,9,-103,-98,30,-8,-80,-71,-74,-82,-105,-112,-83,-61,-70,-105,-111,-88,-40,-6,2,-21,-63,-21,58,82,-6,-190,-265,-244,-269,-328,-387,-395,-335,-266,-224,-164,-123,-99,-94,-105,-70,-63,-79,-80,-65,-55,-68,-55,-24,-16,1,1,9,7,17,35,53,67,84,73,49,43,43,72,87,68,67,79,73,69,58,47,36,34,16,-18,-22,10,18,-19,-31,-8,-5,-10,-4,11,21,40,63,45,69,146,163,145,147,153,146,174,216,239,204,152,108,60,85,100,74,48,9,-2,3,1,-5,-3,-4,-27,-36,-32,-12,17,37,38,73,69,15,24,88,173,292,221,31,45,110,82,18,-28,-34,-18,-15,-22,-16,-13,-12,-17,-35,-27,-3,20,9,-5,11,36,55,29,35,39,31,38,72,92,89,57,43,61,81,70,69,79,57,55,47,32,52,59,33,-1,-40,-60,-33,-16,-34,-49,-57,-58,-48,-55,-38,-47,-75,-42,-8,-4,20,40,43,43,67,87,113,115,110,127,158,168,137,103,129,115,87,63,19,-20,-28,-15,-13,-40,-55,-64,-65,-70,-95,-77,-53,-66,-33,-16,-24,-21,-74,-154,-151,-44,139,288,215,78,60,131,149,56,-36,-58,-45,-59,-89,-103,-112,-119,-126,-121,-113,-119,-98,-78,-89,-103,-100,-82,-69,-71,-79,-76,-61,-54,-47,-51,-71,-78,-57,-45,-57,-65,-80,-87,-79,-89,-124,-126,-118,-135,-169,-198,-198,-186,-167,-167,-160,-161,-157,-159,-161,-131,-114,-111,-118,-122,-100,-83,-77,-72,-65,-48,-19,-1,26,43,60,78,74,47,29,20,7,-5,-16,-39,-72,-97,-119,-136,-143,-150,-145,-144,-147,-159,-174,-173,-152,-140,-138,-132,-143,-213,-334,-382,-269,-29,251,345,217,150,208,241,164,9,-112,-163,-203,-262,-309,-350,-380,-398,-408,-405,-400,-414,-412,-424,-433,-422,-421,-414,-418,-426,-429,-432,-440,-442,-438,-451,-470,-474,-482,-498,-502,-513,-533,-554,-555,-546,-548,-551,-536,-540,-561,-581,-562,-533,-518,-505,-491,-480,-455,-433,-409,-385,-382,-383,-357,-333,-329,-331,-343,-340,-326,-314,-305,-279,-246,-220,-205,-196,-193,-192,-188,-197,-187,-162,-155,-168,-187,-212,-212,-190,-184,-194,-178,-179,-176,-163,-157,-145,-155,-151,-133,-111,-141,-232,-384,-442,-304,-12,234,285,201,168,247,320,250,83,-40,-87,-123,-159,-193,-232,-240,-237,-231,-221,-218,-223,-226,-191,-186,-191,-184,-183,-192,-178,-133,-124,-122,-116,-115,-125,-126,-132,-135,-131,-139,-152,-151,-160,-161,-170,-195,-204,-218,-216,-211,-219,-209,-182,-175,-178,-172,-165,-175,-175,-156,-154,-156,-152,-147,-113,-88,-78,-74,-80,-78,-69,-41,-20,-7,14,41,49,55,56,43,38,28,22,29,16,-19,-61,-91,-96,-103,-126,-138,-148,-149,-142,-143,-138,-129,-122,-116,-105,-116,-169,-254,-385,-376,-157,155,376,344,277,353,491,548,439,275,186,137,78,29,-12,-42,-52,-46,-43,-45,-26,-18,-9,5,12,9,-1,-4,8,21,28,28,33,31,26,27,20,19,5,-6,-1,-4,-5,-19,-33,-42,-40,-46,-43,-31,-32,-37,-31,-25,-18,-8,11,27,53,71,82,91,94,104,107,116,141,148,159,170,161,161,194,225,241,257,280,289,291,278,273,262,248,230,220,201,179,161,141,128,124,102,88,94,89,114,136,129,122,120,134,138,122,72,-4,-52,55,266,465,555,460,408,439,483,436,288,168,127,123,113,87,79,71,68,76,76,91,103,107,116,116,113,106,123,132,135,139,127,112,121,137,119,91,90,112,112,91,89,92,97,105,73,53,50,45,41,40,22,3,4,12,35,45,64,78,79,75,76,106,135,137,128,133,162,180,183,184,194,210,215,232,257,272,276,278,281,274,268,264,264,246,211,176,161,149,137,135,144,137,132,128,115,114,122,130,133,143,153,147,105,17,-37,61,247,449,565,478,380,401,470,455,338,232,199,189,160,127,100,83,84,88,101,104,101,103,109,102,100,106,109,115,111,108,104,109,109,103,101,105,112,109,101,102,114,96,63,34,45,73,69,46,41,33,25,16,14,25,37,31,11,35,95,147,165,151,145,133,140,153,157,156,150,153,171,182,195,205,221,248,248,231,220,209,205,209,206,192,167,141,110,84,72,72,75,77,78,69,61,55,41,53,73,83,82,37,-48,-142,-116,65,302,519,548,410,340,388,425,349,221,159,143,98,23,-6,-25,-34,-30,-30,-45,-54,-51,-56,-61,-58,-60,-63,-59,-61,-70,-78,-61,-63,-64,-52,-61,-72,-79,-88,-95,-125,-149,-138,-130,-134,-160,-182,-183,-189,-202,-217,-219,-217,-208,-189,-183,-166,-155,-142,-114,-97,-107,-92,-76,-68,-51,-39,-36,-24,-21,-12,19,42,58,78,110,128,123,120,132,134,131,130,120,102,69,40,24,18,15,6,-6,7,24,28,24,16,14,25,33,39,40,-1,-74,-140,-94,59,242,387,349,233,227,296,321,236,146,130,126,68,17,-4,-24,-40,-51,-49,-46,-46,-40,-41,-35,-31,-30,-25,-19,-6,-5,-9,3,-2,-19,-15,-18,-24,-19,-6,-22,-13,-5,-29,-68,-84,-78,-101,-136,-133,-118,-135,-163,-141,-115,-106,-82,-77,-88,-88,-72,-53,-37,-28,-43,-56,-46,-34,-32,-37,-31,-13,32,69,93,98,115,141,149,158,179,189,198,187,177,176,164,137,121,98,84,82,77,86,93,91,82,75,76,58,66,111,135,84,-27,-176,-235,-85,230,530,617,542,525,616,690,597,400,275,215,133,60,29,-2,-26,-17,-14,-19,-19,-22,-26,-27,-24,-9,3,1,-6,-1,-8,-24,-24,-29,-39,-57,-77,-90,-117,-139,-155,-159,-158,-175,-175,-182,-205,-209,-201,-200,-204,-199,-194,-187,-163,-129,-123,-106,-66,-42,-21,-2,9,20,30,50,70,81,97,101,102,117,143,168,183,208,243,257,252,256,262,254,242,222,210,192,167,148,132,120,113,113,113,101,90,92,100,108,98,79,66,77,66,-4,-114,-221,-173,54,371,596,561,480,510,599,587,433,264,185,153,104,56,17,4,-2,1,3,2,-1,-4,2,17,21,16,17,10,12,17,17,16,12,-11,-29,-40,-61,-79,-103,-128,-158,-189,-206,-220,-230,-234,-245,-255,-257,-254,-251,-230,-220,-202,-159,-134,-116,-88,-72,-61,-64,-37,-36,-63,-9,60,61,55,86,101,86,106,144,187,224,213,194,177,165,154,153,131,99,76,57,10,-12,-4,-10,-12,-21,-45,-61,-47,-38,-36,-3,31,34,35,-10,-82,-199,-249,-128,145,466,582,469,407,428,438,334,176,76,28,0,-1,-14,-43,-49,-43,-54,-66,-43,-26,-33,-32,-18,-2,9,-10,-22,-13,-9,-7,-4,-6,-17,-20,-5,-10,-22,-19,-10,-10,-20,-28,-30,-35,-45,-48,-50,-55,-55,-55,-51,-40,-25,-6,15,21,18,14,18,26,37,43,42,45,53,60,72,96,115,128,149,172,191,195,193,195,186,159,143,136,120,82,16,-53,-48,78,344,612,725,700,652,572,411,246,154,90,48,-4,-66,-120,-165,-225,-277,-318,-344,-321,-269,-197,-131,-78,-53,-31,-4,4,19,36,45,59,69,80,89,97,102,112,116,125,129,115,98,90,68,52,50,32,16,-14,-53,-71,-78,-89,-85,-95,-112,-89,-66,-64,-64,-56,-47,-46,-60,-81,-80,-67,-74,-93,-111,-124,-137,-123,-143,-149,-150,-160,-140,-122,-121,-122,-128,-138,-128,-95,-76,-74,-69,-43,-17,-15,-15,-10,-6,-23,-47,-72,-104,-122,-126,-127,-129,-135,-158,-176,-182,-182,-165,-162,-170,-166,-165,-164,-150,-137,-174,-256,-361,-365,-217,58,359,401,269,221,278,333,241,60,-68,-117,-146,-177,-215,-235,-231,-220,-209,-214,-214,-202,-186,-174,-181,-173,-164,-156,-155,-164,-163,-146,-145,-158,-163,-158,-155,-142,-128,-152,-194,-220,-214,-214,-227,-246,-251,-256,-279,-300,-287,-269,-273,-286,-294,-278,-251,-225,-201,-193,-192,-185,-159,-144,-131,-95,-86,-95,-93,-82,-53,-25,-8,20,54,59,57,69,63,54,45,44,31,-2,-20,-31,-46,-66,-76,-92,-111,-111,-91,-84,-70,-56,-61,-61,-54,-49,-63,-123,-239,-323,-239,-6,247,334,244,212,265,331,328,202,72,14,-11,-58,-99,-116,-124,-121,-101,-85,-84,-96,-82,-64,-33,-25,-35,-31,-42,-66,-82,-70,-39,-29,-23,-20,-32,-45,-59,-59,-55,-50,-40,-28,-19,-47,-70,-61,-67,-96,-91,-70,-63,-67,-58,-55,-75,-98,-94,-76,-62,-29,-26,-42,-56,-51,-40,-16,8,30,65,84,78,79,90,109,102,86,98,104,103,87,56,37,9,-22,-22,-18,-40,-54,-52,-53,-59,-56,-54,-85,-77,-27,0,-4,-87,-191,-252,-176,-14,167,263,172,77,90,164,172,80,17,27,37,-8,-48,-56,-56,-48,-53,-56,-60,-57,-56,-67,-62,-58,-55,-43,-48,-55,-29,3,2,7,8,10,18,6,15,17,13,26,32,24,-12,-41,-33,-10,-4,-22,-36,-44,-45,-56,-46,-37,-49,-41,-20,-11,-16,-24,-10,0,-8,-11,-2,17,23,5,38,92,107,105,126,136,133,117,94,91,83,75,56,20,-6,-8,-21,-24,-46,-96,-101,-64,-79,-110,-92,-85,-92,-75,-71,-103,-105,-131,-217,-285,-130,86,252,336,225,126,146,206,166,26,-46,-40,-28,-53,-94,-88,-106,-123,-106,-125,-139,-159,-181,-158,-137,-150,-154,-150,-131,-94,-60,-37,-57,-72,-75,-95,-127,-157,-188,-183,-125,-103,-145,-232,-262,-199,-182,-241,-282,-272,-265,-269,-270,-277,-238,-172,-164,-206,-180,-83,-52,-54,-57,-63,-68,-56,-59,-44,7,40,41,72,119,105,108,152,163,148,138,133,120,112,110,77,47,27,8,18,42,3,-31,-66,-18,6,33,41,-5,-64,-31,43,81,40,-72,-236,-297,-111,154,337,333,295,376,540,605,494,326,215,156,90,-12,-125,-180,-126,-52,-24,-15,-20,-47,-71,-74,-68,-81,-89,-95,-103,-96,-103,-112,-128,-126,-123,-151,-172,-158,-156,-184,-219,-234,-231,-218,-205,-215,-234,-245,-252,-264,-261,-258,-242,-234,-219,-215,-229,-230,-208,-175,-159,-148,-127,-114,-115,-105,-90,-84,-72,-51,-33,-16,9,37,50,44,26,11,29,54,50,20,-23,-61,-82,-111,-133,-145,-156,-157,-166,-176,-183,-177,-176,-191,-194,-189,-176,-168,-206,-312,-434,-384,-176,127,355,293,196,215,278,233,55,-96,-184,-231,-270,-335,-378,-373,-380,-402,-389,-372,-385,-400,-421,-453,-444,-423,-416,-425,-463,-499,-498,-476,-471,-513,-522,-520,-503,-460,-448,-459,-453,-449,-468,-468,-426,-424,-426,-376,-381,-411,-369,-329,-357,-384,-374,-315,-274,-248,-253,-227,-189,-202,-211,-179,-176,-138,-116,-118,-98,-56,-33,-29,10,58,61,38,1,-19,-17,-11,-35,-55,-77,-92,-150,-174,-147,-173,-200,-179,-142,-146,-128,-123,-147,-147,-130,-105,-106,-137,-209,-257,-191,-50,119,160,34,-39,-12,45,-52,-226,-314,-313,-262,-218,-191,-171,-154,-149,-168,-201,-182,-122,-80,-99,-153,-189,-209,-189,-151,-116,-87,-65,-80,-124,-143,-137,-141,-79,-13,-5,-14,-39,-48,-14,28,49,60,62,39,9,-13,-34,-56,-36,-39,-76,-91,-81,-31,41,57,57,21,-25,6,65,87,79,78,101,137,166,162,170,174,153,140,136,128,117,105,69,37,36,16,-15,-33,-40,-49,-56,-51,-42,-17,-8,-8,-20,-32,-35,-36,-45,-82,-155,-135,-17,152,294,212,25,-34,21,49,-49,-157,-165,-123,-76,-57,-70,-100,-145,-139,-101,-36,9,14,-2,-14,-17,-10,-9,-16,-7,0,-4,11,36,40,41,44,40,47,38,29,41,51,64,59,47,55,72,92,98,73,63,69,56,58,65,56,50,58,47,35,75,127,112,53,28,49,95,159,169,136,139,172,206,209,215,223,205,166,109,62,50,73,94,76,32,11,-11,-62,-65,-4,55,74,54,21,-15,-24,-1,34,40,28,-37,-127,-83,63,234,304,155,-28,-73,14,54,12,13,38,52,17,-34,-39,-4,30,34,27,2,-6,13,45,46,33,30,49,59,62,71,65,61,78,97,117,111,108,110,116,115,100,93,93,85,87,93,93,87,70,49,54,66,80,84,66,60,73,74,81,87,94,96,96,107,121,130,132,131,144,169,200,223,233,221,204,204,216,215,179,147,134,114,91,68,40,18,10,4,-6,-15,-18,-15,-12,-10,-12,-13,1,21,14,-32,-116,-144,-48,91,276,340,168,28,3,21,-14,-73,-42,-10,-31,-76,-93,-79,-47,-56,-94,-129,-125,-88,-73,-86,-84,-79,-82,-75,-73,-75,-75,-58,-32,-30,-35,-30,-31,-53,-79,-54,-25,-39,-57,-77,-95,-104,-107,-109,-109,-110,-118,-135,-115,-90,-86,-102,-103,-87,-87,-85,-70,-57,-62,-58,-47,-40,-42,-39,-28,-9,-3,-6,17,46,53,55,50,20,-15,-41,-60,-78,-113,-174,-220,-232,-249,-272,-274,-273,-284,-292,-303,-301,-280,-275,-305,-305,-298,-312,-330,-403,-422,-315,-172,-4,9,-148,-217,-167,-135,-209,-312,-356,-360,-363,-384,-416,-416,-383,-379,-383,-368,-367,-381,-379,-369,-357,-359,-367,-354,-349,-359,-359,-355,-361,-360,-356,-349,-353,-355,-332,-332,-350,-346,-342,-330,-321,-322,-321,-323,-316,-302,-302,-302,-303,-298,-271,-257,-260,-255,-240,-245,-270,-254,-203,-156,-123,-119,-121,-107,-88,-65,-45,-27,-10,2,10,-4,-36,-34,-12,2,-8,-31,-70,-102,-117,-126,-129,-118,-105,-99,-106,-122,-148,-186,-193,-134,-43,-18,-46,-95,-195,-306,-259,-76,176,375,329,186,162,263,298,200,125,123,97,38,-3,-12,-21,-14,-13,-41,-39,7,29,-11,-41,3,85,118,94,73,49,40,53,68,51,18,10,3,2,-9,-35,-21,5,-30,-109,-180,-226,-243,-189,-90,-45,-42,-42,-16,-4,-14,-29,-3,31,48,44,54,57,48,67,94,109,112,131,150,163,176,192,218,229,231,237,240,231,205,187,183,162,126,103,93,81,77,78,78,76,74,81,89,86,71,69,86,101,73,-29,-211,-375,-351,-39,464,780,831,840,909,978,910,702,524,401,296,167,69,13,-18,-36,-45,-43,-37,-39,-33,-30,-24,-15,-12,-9,-8,-13,-5,7,1,2,-7,-27,-46,-49,-54,-64,-77,-85,-93,-110,-135,-160,-175,-187,-199,-208,-216,-223,-223,-218,-211,-204,-203,-189,-171,-153,-136,-118,-103,-86,-57,-38,-27,-8,11,38,70,112,158,176,175,175,169,156,147,141,122,92,55,25,-2,-24,-32,-34,-38,-36,-32,-28,-23,-19,-18,-21,-20,-15,-33,-103,-221,-358,-361,-182,154,447,470,436,457,510,489,328,156,66,39,28,12,-15,-24,-21,-18,-18,-6,9,16,20,28,24,36,52,64,74,77,82,76,71,84,91,81,73,67,72,76,83,100,97,79,56,39,56,92,97,91,102,98,87,76,77,83,81,71,61,61,54,59,68,73,80,104,138,172,182,186,199,214,223,210,197,193,165,149,168,160,119,74,38,19,19,23,25,24,10,15,14,6,12,20,33,51,57,17,-81,-180,-131,55,309,470,383,264,231,253,255,186,126,125,123,75,27,-3,-22,-34,-36,-31,-20,-20,-19,-23,-19,-8,-3,-4,0,2,11,16,18,21,18,-2,-8,-8,3,3,-8,-15,-24,-20,-37,-58,-78,-102,-107,-117,-133,-152,-135,-108,-107,-106,-101,-100,-95,-82,-65,-62,-65,-62,-40,-17,-5,10,27,30,45,68,89,104,107,100,108,115,105,101,84,39,9,-8,-31,-37,-45,-47,-57,-51,-42,-49,-59,-57,-55,-48,-43,-39,-30,-61,-179,-358,-423,-258,160,577,684,621,605,661,656,501,290,166,103,42,-39,-98,-144,-176,-164,-141,-136,-139,-144,-153,-159,-159,-149,-146,-153,-150,-145,-144,-149,-162,-170,-173,-179,-183,-203,-229,-244,-252,-259,-272,-280,-287,-296,-305,-310,-305,-303,-295,-276,-254,-243,-234,-227,-216,-191,-163,-142,-124,-112,-97,-84,-74,-70,-58,-38,-18,14,56,100,125,130,129,128,123,120,112,94,63,19,-7,-18,-24,-30,-35,-37,-40,-41,-44,-46,-47,-46,-46,-35,-12,-5,-70,-222,-409,-476,-267,178,517,575,583,632,673,626,446,234,96,42,-1,-54,-102,-123,-126,-117,-109,-106,-116,-104,-90,-84,-76,-74,-72,-60,-57,-56,-46,-46,-43,-26,-31,-30,-30,-16,-34,-47,-40,-34,-43,-60,-57,-46,-56,-71,-73,-80,-89,-91,-87,-93,-101,-101,-100,-94,-100,-95,-91,-95,-88,-76,-56,-44,-30,-1,31,51,68,73,75,77,72,60,62,54,32,4,-26,-62,-80,-82,-100,-103,-98,-106,-115,-115,-118,-110,-95,-93,-106,-92,-56,-56,-102,-188,-223,-112,99,304,334,220,145,106,78,-14,-153,-219,-209,-165,-127,-114,-113,-112,-99,-77,-76,-71,-59,-43,-26,-12,-9,-5,10,20,28,32,36,50,64,68,71,83,97,111,122,138,153,163,166,169,170,165,168,170,166,168,161,143,125,106,101,97,83,65,47,35,46,55,49,49,68,96,121,147,161,161,151,136,124,127,128,125,110,85,56,23,-13,-36,-48,-54,-56,-60,-64,-58,-62,-72,-78,-76,-65,-48,-25,-31,-59,-123,-214,-187,-13,231,362,258,148,88,71,54,-34,-115,-121,-88,-59,-53,-64,-65,-79,-79,-69,-57,-51,-41,-40,-35,-35,-24,-7,-5,-20,-47,-53,-43,-9,21,24,18,13,12,15,24,26,28,32,29,24,23,30,33,18,-1,-17,-23,-20,-28,-46,-70,-72,-51,-32,-27,-44,-50,-33,-19,-16,-12,-1,19,51,93,117,108,97,91,81,75,74,70,63,42,8,-25,-54,-66,-50,-35,-50,-62,-61,-57,-63,-70,-68,-61,-44,-23,-32,-92,-210,-333,-292,-72,250,454,429,380,363,361,306,157,55,56,65,19,-45,-77,-94,-101,-104,-101,-90,-89,-104,-92,-73,-58,-40,-45,-53,-49,-47,-50,-41,-30,-27,-29,-26,-13,-20,-28,-30,-40,-56,-69,-63,-66,-93,-114,-121,-114,-109,-109,-97,-86,-88,-85,-90,-102,-100,-94,-99,-101,-94,-93,-93,-85,-71,-62,-42,-8,25,61,77,62,38,29,17,7,7,0,-10,-29,-51,-69,-93,-97,-94,-109,-132,-116,-93,-90,-98,-108,-107,-98,-79,-70,-127,-268,-423,-477,-306,131,537,604,535,516,535,513,398,230,124,70,14,-48,-86,-107,-120,-129,-132,-140,-146,-137,-133,-134,-137,-134,-126,-116,-108,-104,-95,-88,-87,-92,-102,-107,-106,-104,-106,-107,-118,-124,-128,-138,-145,-150,-158,-163,-166,-165,-160,-158,-149,-139,-133,-131,-128,-113,-101,-100,-92,-80,-76,-76,-68,-55,-44,-22,-2,22,68,108,113,101,90,71,58,52,48,34,10,-20,-48,-62,-71,-82,-78,-78,-77,-74,-74,-80,-85,-79,-67,-54,-38,-64,-154,-301,-400,-306,35,415,489,408,385,419,410,290,119,31,28,24,-18,-77,-110,-120,-119,-111,-107,-102,-103,-95,-89,-86,-76,-68,-62,-57,-45,-39,-38,-31,-22,-24,-22,-14,-5,0,1,3,0,-4,0,-7,-24,-28,-26,-36,-55,-57,-56,-60,-65,-77,-82,-87,-95,-91,-75,-62,-61,-59,-56,-51,-33,-15,4,29,58,96,131,142,127,109,99,98,97,80,54,23,-7,-47,-71,-75,-76,-86,-83,-79,-77,-76,-83,-99,-97,-69,-54,-37,-29,-60,-128,-226,-223,-57,221,391,298,212,194,167,96,-46,-167,-180,-127,-80,-51,-60,-65,-58,-44,-38,-40,-39,-30,-11,10,10,14,24,22,32,44,52,57,58,67,66,69,75,81,79,87,104,103,96,97,90,79,63,62,74,71,36,32,41,24,11,19,11,5,12,27,25,22,24,37,49,72,83,108,133,161,178,176,182,182,175,165,140,131,109,65,35,18,4,-12,-23,-20,-31,-28,-31,-31,-33,-28,-32,-12,13,19,22,19,8,-26,6,120,266,316,166,50,20,10,-60,-176,-209,-168,-103,-45,-23,-17,-8,3,15,12,11,33,55,63,63,52,63,80,91,99,92,91,101,121,139,133,127,129,137,156,166,162,160,160,154,150,148,140,128,117,115,113,102,90,91,97,97,91,84,84,81,83,100,109,114,123,145,164,178,208,243,275,286,273,258,246,251,252,239,215,183,151,133,123,105,95,101,106,112,116,109,102,109,113,114,127,146,153,122,34,-70,-46,130,407,568,477,393,373,356,293,170,85,105,165,199,196,171,159,163,170,180,187,188,185,205,232,245,255,261,275,290,297,307,319,319,326,345,360,366,363,363,378,379,383,388,384,369,362,365,365,359,352,346,337,339,342,341,339,335,327,323,323,336,353,361,365,363,372,402,439,467,489,524,544,535,513,509,522,520,509,481,443,416,398,378,365,353,356,357,354,355,368,376,374,375,382,396,408,409,386,329,207,96,148,417,787,904,831,800,830,840,747,599,538,544,542,506,457,424,414,419,420,405,404,432,460,465,466,470,471,481,492,497,499,494,504,528,547,554,554,549,542,543,537,541,552,559,548,530,519,511,508,502,495,495,477,462,464,470,466,462,457,467,483,494,496,492,476,472,498,540,571,587,623,669,690,680,664,653,645,630,624,613,587,550,521,496,492,495,492,495,498,492,493,493,486,489,500,502,517,531,486,369,204,107,212,578,1015,1139,1054,1025,1067,1048,922,756,676,657,616,532,476,449,424,416,416,409,402,403,411,415,420,430,435,440,443,441,439,442,456,457,443,445,447,441,438,432,428,416,406,400,394,384,380,378,380,371,362,356,349,346,348,346,345,349,357,367,373,378,390,402,404,399,405,427,450,476,504,534,569,576,570,553,535,527,521,500,469,437,394,366,352,330,316,320,331,325,315,311,310,310,316,307,310,331,340,287,180,73,92,286,611,795,703,607,598,598,501,357,264,254,278,288,265,228,207,200,196,198,194,201,209,205,212,227,229,223,229,229,224,231,232,233,242,240,234,238,239,231,223,220,208,195,186,186,171,157,137,130,134,107,78,75,74,73,83,87,73,67,69,68,89,100,99,113,135,142,165,182,193,211,251,264,239,224,214,210,196,178,167,145,101,52,27,19,9,-8,-5,-17,-13,-15,-14,-14,-29,-39,-33,-25,-3,3,-37,-120,-141,-29,151,323,288,149,104,88,48,-68,-180,-206,-170,-131,-100,-88,-85,-88,-95,-90,-81,-79,-78,-74,-60,-46,-47,-40,-38,-44,-40,-34,-31,-23,-16,-19,-24,-20,-8,-14,-25,-25,-25,-30,-44,-52,-40,-47,-62,-75,-84,-88,-85,-82,-84,-88,-92,-95,-92,-87,-82,-84,-77,-61,-52,-47,-37,-26,-10,10,32,55,82,101,94,92,100,98,86,73,53,24,-2,-21,-32,-45,-58,-58,-59,-62,-57,-56,-60,-55,-47,-46,-46,-39,-26,-43,-100,-206,-277,-191,29,315,439,371,334,340,338,253,107,27,28,44,48,19,-15,-33,-31,-18,-6,6,10,12,23,37,39,43,51,46,43,54,73,73,57,55,68,74,85,82,63,49,48,45,25,-2,-7,7,9,-11,-21,-9,-2,-7,-17,-10,6,10,17,19,18,15,20,33,40,41,36,40,63,80,89,105,131,153,149,144,147,142,136,127,117,103,75,36,-4,-32,-48,-50,-35,-29,-24,-19,-30,-40,-50,-43,-28,-28,-25,-51,-136,-276,-418,-412,-186,221,526,525,448,448,491,448,300,173,129,111,49,-19,-59,-91,-114,-128,-128,-118,-122,-125,-117,-113,-104,-100,-92,-89,-100,-111,-101,-98,-104,-99,-93,-112,-138,-154,-159,-161,-174,-202,-217,-215,-217,-224,-240,-254,-250,-240,-229,-209,-185,-166,-155,-144,-134,-123,-111,-105,-104,-93,-82,-76,-74,-72,-68,-58,-41,-29,-11,32,79,92,84,78,76,74,64,54,41,20,-6,-33,-49,-54,-51,-48,-47,-46,-44,-42,-40,-38,-40,-39,-29,-15,-35,-115,-246,-381,-373,-149,271,605,611,536,534,548,498,359,218,151,118,55,-29,-81,-111,-120,-118,-122,-129,-130,-124,-120,-119,-118,-113,-109,-107,-106,-106,-97,-98,-101,-106,-108,-108,-112,-118,-121,-134,-150,-158,-164,-173,-180,-183,-183,-190,-193,-186,-181,-178,-179,-171,-154,-140,-127,-119,-115,-111,-99,-82,-68,-62,-54,-42,-42,-35,-13,9,32,55,89,105,96,86,80,71,61,46,30,9,-28,-61,-83,-93,-95,-100,-102,-106,-96,-97,-101,-106,-104,-112,-108,-97,-99,-136,-207,-311,-312,-170,89,343,354,265,239,258,231,103,-38,-101,-111,-116,-129,-158,-179,-178,-179,-168,-164,-171,-171,-157,-149,-149,-147,-141,-129,-123,-119,-119,-117,-115,-115,-127,-133,-128,-114,-132,-156,-157,-149,-155,-170,-182,-189,-188,-194,-203,-202,-191,-191,-193,-182,-168,-171,-171,-152,-145,-155,-140,-124,-107,-88,-100,-106,-83,-69,-51,-11,2,21,47,49,38,14,19,35,29,-14,-33,-63,-104,-129,-142,-155,-163,-160,-162,-156,-159,-170,-172,-164,-153,-152,-144,-133,-135,-162,-239,-277,-188,-34,137,179,63,4,9,18,-66,-189,-239,-230,-202,-173,-161,-172,-178,-170,-162,-159,-156,-147,-139,-137,-128,-118,-117,-113,-106,-94,-89,-86,-81,-77,-67,-61,-56,-54,-54,-54,-53,-53,-53,-51,-49,-55,-63,-69,-72,-74,-72,-62,-61,-69,-64,-60,-56,-53,-44,-37,-33,-33,-29,-11,7,15,13,23,44,64,85,107,137,141,133,129,128,119,114,108,83,48,21,-9,-28,-37,-36,-33,-34,-46,-48,-45,-41,-40,-40,-38,-33,-25,-39,-92,-187,-305,-312,-159,132,421,438,334,303,316,286,172,56,38,51,38,-12,-58,-79,-84,-81,-82,-81,-75,-74,-79,-74,-58,-42,-38,-34,-31,-30,-26,-28,-33,-35,-35,-30,-31,-42,-50,-56,-64,-66,-71,-86,-97,-101,-110,-116,-120,-115,-109,-110,-114,-107,-94,-82,-77,-74,-65,-65,-59,-46,-36,-29,-23,-28,-28,-8,17,34,50,87,120,126,110,103,109,103,93,70,41,21,1,-24,-41,-47,-44,-46,-55,-59,-53,-47,-46,-53,-56,-41,-21,-11,-49,-151,-298,-401,-328,-39,384,605,525,432,420,421,348,227,159,145,109,14,-59,-85,-103,-114,-104,-97,-107,-114,-107,-102,-108,-104,-100,-96,-92,-82,-74,-77,-75,-83,-96,-101,-106,-121,-153,-164,-156,-162,-192,-217,-250,-280,-288,-290,-273,-243,-198,-175,-172,-162,-146,-128,-115,-104,-93,-81,-67,-62,-58,-49,-38,-31,-33,-27,-14,-1,3,22,61,94,106,100,91,90,87,79,72,54,26,-10,-26,-29,-39,-44,-43,-40,-38,-37,-34,-31,-34,-31,-26,-13,2,-25,-114,-241,-351,-301,-46,364,616,575,519,526,522,436,277,154,122,102,39,-31,-84,-109,-112,-119,-126,-126,-128,-122,-117,-117,-113,-101,-96,-101,-105,-99,-90,-96,-97,-100,-110,-108,-118,-135,-147,-151,-151,-161,-172,-187,-209,-216,-211,-213,-219,-213,-224,-245,-256,-214,-170,-195,-233,-218,-221,-238,-247,-183,-114,-152,-139,-101,-126,-98,-20,30,68,112,143,125,123,174,210,217,197,171,131,97,53,24,7,-15,-32,-40,-53,-62,-68,-66,-65,-72,-81,-87,-73,-58,-59,-112,-225,-403,-447,-246,111,406,437,286,247,319,379,320,196,155,145,95,-6,-63,-103,-131,-141,-147,-151,-181,-191,-190,-198,-221,-236,-239,-231,-249,-234,-189,-118,-96,-115,-145,-165,-178,-199,-237,-269,-346,-392,-385,-375,-356,-319,-280,-283,-345,-318,-259,-269,-282,-285,-220,-152,-142,-158,-174,-158,-120,-108,-94,-77,-78,-84,-85,-81,-51,-23,-8,9,13,24,31,-1,-17,-4,20,17,-25,-80,-136,-174,-198,-212,-201,-213,-227,-241,-203,-192,-116,-21,13,14,-3,-18,-71,-203,-380,-490,-378,-11,495,795,767,672,632,578,476,300,174,117,42,-36,-103,-163,-176,-184,-198,-200,-202,-200,-199,-201,-205,-205,-214,-229,-234,-236,-233,-240,-269,-280,-287,-302,-316,-327,-337,-352,-364,-366,-374,-376,-373,-371,-349,-349,-345,-333,-318,-297,-271,-244,-215,-184,-160,-144,-108,-84,-75,-47,-25,-27,-24,-14,9,27,19,17,40,77,96,111,154,171,158,140,135,120,90,52,-7,-104,-172,-136,-48,-21,-47,-146,-160,-88,-38,-83,-94,-65,-37,-63,-71,-112,-165,-214,-361,-464,-355,-105,234,598,628,432,451,639,626,411,212,163,151,89,23,-41,-100,-118,-132,-138,-139,-143,-156,-178,-187,-161,-140,-157,-155,-136,-105,-106,-122,-144,-187,-244,-300,-408,-564,-617,-546,-488,-555,-614,-569,-535,-374,-276,-239,-177,-207,-246,-281,-306,-254,-202,-180,-159,-122,-96,-96,-101,-92,-124,-171,-142,-59,-4,25,30,43,45,42,79,126,124,97,94,110,96,80,69,55,23,-8,-44,-67,-74,-102,-186,-279,-277,-195,-114,-114,-129,-81,-3,56,53,-17,-225,-483,-538,-321,168,586,698,687,743,849,845,697,513,323,217,120,13,-26,-49,-65,-72,-57,-70,-53,-29,-43,-60,-76,-91,-99,-95,-91,-98,-104,-128,-155,-158,-150,-159,-181,-203,-225,-241,-260,-283,-281,-283,-276,-260,-260,-258,-249,-235,-223,-209,-196,-185,-167,-148,-122,-101,-86,-65,-43,-30,-14,-12,-9,2,10,20,36,57,83,116,143,157,162,165,160,141,119,105,81,32,-46,-82,-84,-118,-148,-121,-125,-168,-180,-72,12,19,-23,-11,3,-21,-30,-80,-207,-375,-448,-368,-17,452,661,585,507,661,807,705,522,389,280,161,65,-14,-62,-94,-115,-123,-177,-225,-215,-170,-118,-33,-64,-144,-177,-226,-209,-68,26,-17,-28,-25,-70,-93,-106,-138,-143,-139,-164,-181,-195,-220,-218,-221,-244,-253,-232,-208,-181,-161,-134,-116,-103,-86,-79,-67,-56,-53,-45,-43,-52,-50,-33,-28,-33,-9,27,39,65,107,124,128,122,108,90,85,81,72,53,35,2,-32,-43,-46,-40,-40,-49,-52,-43,-43,-51,-54,-48,-46,-45,-22,-60,-207,-401,-493,-355,62,525,699,685,689,765,807,700,500,354,258,138,17,-58,-90,-105,-114,-110,-121,-133,-128,-107,-97,-105,-120,-126,-121,-110,-103,-104,-100,-97,-100,-113,-124,-133,-141,-150,-155,-165,-180,-198,-215,-218,-226,-240,-249,-258,-260,-259,-251,-248,-237,-234,-230,-211,-193,-199,-193,-169,-159,-160,-143,-116,-114,-134,-140,-116,-80,-50,-17,10,24,34,47,35,20,16,27,-5,-55,-76,-101,-114,-130,-150,-160,-166,-168,-170,-169,-151,-144,-125,-120,-129,-132,-161,-237,-371,-527,-529,-327,20,290,299,260,282,326,302,189,58,-30,-65,-94,-123,-166,-185,-185,-197,-228,-225,-198,-195,-200,-193,-188,-188,-178,-164,-163,-172,-166,-159,-169,-187,-200,-211,-216,-219,-219,-219,-218,-233,-242,-247,-257,-260,-265,-267,-260,-256,-248,-239,-227,-213,-204,-196,-195,-197,-184,-174,-170,-173,-171,-159,-156,-159,-146,-131,-122,-115,-80,-24,-4,-12,-17,-7,-3,-4,-7,-12,-23,-53,-84,-107,-119,-120,-122,-127,-128,-122,-129,-132,-120,-117,-110,-106,-109,-100,-141,-252,-407,-457,-298,39,335,364,307,308,362,387,274,102,-2,-37,-63,-92,-129,-153,-163,-165,-163,-160,-158,-153,-139,-124,-128,-118,-101,-87,-80,-72,-72,-74,-75,-75,-70,-70,-70,-67,-74,-91,-97,-96,-102,-114,-118,-140,-163,-172,-194,-215,-219,-220,-200,-161,-151,-170,-206,-236,-235,-228,-216,-215,-230,-247,-210,-113,-53,-19,29,23,-12,-24,-29,-11,59,74,9,-93,-102,-45,-24,-71,-160,-153,-91,-74,-81,-51,-31,-32,-43,-27,-16,-27,-49,-63,-64,-77,-135,-241,-417,-564,-538,-243,231,435,392,424,502,604,624,455,263,146,89,7,-82,-158,-201,-279,-405,-375,-341,-483,-418,-260,-207,-108,-86,-83,-103,-141,-186,-209,-217,-240,-271,-289,-321,-341,-350,-367,-377,-380,-375,-362,-360,-376,-386,-398,-486,-630,-732,-635,-379,-253,-241,-266,-256,-161,-50,-88,-136,-177,-120,18,21,15,-1,-33,-44,-60,-22,36,49,53,25,15,10,29,21,2,-24,-51,-71,-82,-117,-136,-143,-163,-214,-262,-183,-132,-173,-140,-81,-61,-37,-110,-380,-702,-906,-809,-428,165,678,792,781,885,976,962,804,572,364,205,67,-44,-112,-146,-156,-192,-213,-227,-249,-231,-222,-216,-219,-248,-260,-268,-297,-353,-412,-424,-463,-531,-472,-384,-390,-371,-392,-487,-503,-452,-423,-390,-457,-541,-618,-631,-545,-433,-311,-249,-247,-277,-230,-118,-50,9,27,29,23,26,24,6,-3,-2,11,7,8,48,107,149,164,159,146,150,161,146,136,136,122,98,68,56,58,55,38,25,42,62,58,63,73,78,76,87,111,128,59,-100,-269,-312,-124,337,783,895,884,921,935,856,699,517,368,172,10,24,107,107,80,74,14,-108,-159,-82,67,180,123,24,-1,48,43,12,-11,-49,-21,21,36,48,34,32,57,20,-65,-69,-40,-40,-70,-86,-95,-120,-135,-141,-132,-151,-156,-133,-145,-218,-221,-156,-155,-165,-134,-108,-92,-6,6,-44,-80,-46,64,89,81,173,245,226,185,177,156,113,71,32,2,-19,-66,-106,-123,-73,10,49,30,-13,-56,-28,-34,-121,-121,-23,32,52,5,-115,-303,-417,-268,154,562,702,723,749,802,788,686,511,344,235,136,35,-42,-63,-81,-87,-91,-107,-105,-102,-101,-98,-75,-71,-92,-91,-81,-89,-91,-86,-86,-96,-119,-121,-101,-105,-136,-153,-155,-158,-175,-183,-192,-203,-208,-226,-274,-325,-313,-248,-184,-140,-129,-139,-149,-145,-115,-81,-45,-24,-61,-106,-121,-76,-6,41,41,38,63,69,69,26,-98,-144,-115,-48,-4,23,86,86,19,-52,-98,-133,-139,-146,-163,-169,-179,-207,-224,-185,-120,-135,-177,-261,-398,-580,-547,-319,-27,336,482,369,275,243,273,282,184,41,-11,7,-33,-125,-152,-165,-195,-204,-210,-246,-266,-221,-190,-171,-151,-156,-190,-245,-271,-180,-81,-86,-114,-131,-170,-207,-234,-278,-294,-267,-264,-268,-279,-278,-279,-303,-313,-283,-237,-214,-225,-234,-225,-186,-140,-109,-103,-112,-106,-88,-77,-75,-81,-85,-75,-54,-33,-12,7,40,88,102,93,80,74,75,71,65,38,2,-17,-37,-58,-71,-72,-71,-70,-74,-80,-89,-109,-132,-141,-107,-51,-27,-79,-156,-235,-361,-453,-359,31,483,591,524,516,569,592,458,277,174,119,58,-15,-85,-131,-150,-163,-170,-189,-213,-211,-204,-228,-238,-203,-152,-139,-117,-133,-182,-210,-167,-132,-98,-51,-62,-118,-159,-182,-221,-245,-245,-183,-139,-143,-143,-166,-189,-192,-201,-186,-137,-137,-141,-126,-135,-125,-100,-79,-68,-80,-104,-120,-113,-102,-86,-73,-64,-58,-30,-2,6,2,-8,-20,-25,-22,-23,-41,-71,-98,-125,-141,-148,-160,-174,-212,-285,-295,-230,-206,-158,-102,-66,-92,-96,-65,-160,-347,-453,-351,-25,312,434,436,467,577,661,599,409,225,117,39,-50,-119,-154,-182,-193,-197,-200,-196,-189,-189,-188,-188,-190,-192,-192,-189,-191,-192,-202,-213,-214,-220,-227,-234,-244,-243,-238,-234,-234,-238,-232,-223,-215,-210,-213,-201,-184,-175,-174,-170,-156,-141,-134,-126,-119,-111,-105,-109,-106,-96,-83,-73,-59,-34,-7,15,40,75,94,84,76,72,62,49,45,21,-11,-44,-70,-84,-103,-117,-134,-145,-147,-147,-136,-132,-142,-148,-149,-141,-122,-123,-173,-266,-369,-362,-203,57,277,265,196,192,225,212,89,-56,-135,-154,-164,-179,-202,-214,-221,-226,-223,-217,-211,-199,-188,-177,-174,-168,-165,-160,-158,-158,-157,-147,-126,-113,-107,-103,-102,-98,-99,-96,-91,-82,-78,-90,-103,-112,-118,-120,-114,-104,-97,-98,-102,-100,-99,-101,-97,-102,-105,-103,-102,-86,-64,-50,-56,-69,-51,-17,15,44,77,101,97,85,74,69,61,55,52,36,9,-18,-35,-46,-52,-55,-63,-69,-67,-69,-71,-78,-85,-89,-89,-77,-73,-135,-260,-398,-417,-211,189,552,601,498,476,533,548,434,259,149,68,-66,-176,-177,-126,-96,-87,-108,-134,-124,-117,-124,-139,-151,-155,-161,-163,-163,-159,-144,-140,-159,-183,-197,-201,-201,-208,-205,-210,-226,-242,-251,-266,-276,-277,-280,-282,-273,-260,-248,-241,-233,-218,-196,-175,-167,-153,-119,-86,-74,-77,-76,-56,-45,-41,-33,-25,-16,13,56,102,117,117,124,116,98,87,70,57,46,33,5,-24,-37,-48,-60,-65,-57,-50,-48,-58,-66,-79,-81,-69,-52,-48,-97,-182,-308,-347,-209,75,391,475,393,350,381,395,306,146,30,-9,-27,-61,-107,-130,-152,-164,-168,-154,-139,-135,-126,-112,-106,-104,-98,-92,-87,-85,-92,-95,-96,-95,-94,-92,-93,-94,-92,-86,-85,-83,-89,-103,-106,-106,-106,-108,-111,-112,-115,-117,-116,-110,-104,-102,-103,-97,-93,-95,-89,-82,-75,-66,-57,-45,-29,-9,13,38,63,88,97,94,89,86,77,67,54,33,16,-10,-32,-57,-73,-81,-80,-76,-71,-66,-69,-74,-74,-69,-60,-45,-36,-72,-157,-276,-320,-198,56,332,393,313,269,288,313,244,107,37,37,37,3,-40,-62,-70,-63,-53,-49,-46,-46,-47,-48,-44,-39,-36,-21,-5,-4,-8,5,14,11,13,18,23,17,7,2,-2,-6,-12,-21,-41,-60,-67,-82,-93,-53,0,14,5,0,-5,-5,3,11,7,-6,-7,6,23,28,24,22,34,51,71,101,135,158,151,135,131,139,140,123,111,100,85,56,31,15,-4,-34,-52,-35,5,22,21,19,13,7,6,15,7,-38,-130,-273,-345,-218,92,455,611,544,479,495,517,445,307,218,180,127,46,-21,-57,-84,-90,-84,-85,-82,-83,-83,-77,-84,-82,-72,-64,-62,-64,-74,-80,-68,-57,-62,-78,-99,-108,-112,-123,-145,-154,-155,-150,-149,-160,-170,-170,-166,-160,-147,-127,-115,-115,-105,-90,-76,-54,-30,-27,-27,-25,-14,6,22,21,16,24,47,70,92,117,155,175,175,165,162,147,134,135,137,117,80,56,33,9,-4,-14,-14,-3,5,13,21,12,-1,-11,3,34,31,-51,-173,-264,-210,4,267,415,355,280,302,373,381,271,138,89,82,43,-20,-56,-71,-83,-90,-77,-65,-68,-81,-82,-65,-50,-30,-32,-51,-57,-51,-36,-21,-28,-44,-49,-53,-54,-52,-49,-43,-56,-80,-97,-123,-136,-119,-105,-116,-135,-139,-130,-137,-152,-148,-134,-124,-109,-112,-117,-112,-100,-82,-82,-80,-74,-63,-38,-28,-20,-13,17,58,71,66,52,49,45,28,0,-23,-37,-73,-105,-125,-131,-143,-156,-161,-158,-162,-162,-159,-165,-163,-158,-123,-91,-136,-211,-301,-392,-361,-175,98,244,184,130,129,169,152,25,-118,-182,-194,-203,-209,-213,-216,-209,-201,-196,-176,-166,-175,-184,-170,-164,-170,-148,-142,-146,-132,-113,-111,-119,-127,-137,-127,-118,-116,-116,-122,-128,-135,-127,-116,-123,-141,-171,-197,-206,-212,-200,-196,-186,-180,-185,-196,-196,-174,-168,-173,-182,-153,-124,-110,-135,-146,-116,-64,-59,-58,-30,9,34,18,-3,-18,-32,-40,-31,-40,-65,-119,-154,-170,-195,-189,-191,-214,-204,-182,-194,-209,-196,-181,-172,-181,-177,-161,-192,-263,-294,-227,-88,85,128,14,-45,-70,-69,-100,-203,-278,-306,-316,-285,-251,-235,-218,-207,-208,-199,-180,-174,-189,-181,-160,-152,-137,-135,-130,-153,-174,-166,-124,-110,-112,-123,-140,-109,-96,-131,-105,-73,-66,-98,-120,-105,-77,-79,-93,-117,-128,-134,-135,-132,-135,-148,-152,-155,-172,-163,-155,-141,-130,-138,-145,-134,-111,-91,-81,-52,-26,-4,13,20,6,-7,-7,-14,-23,-37,-66,-94,-126,-144,-156,-167,-173,-176,-180,-186,-195,-192,-183,-181,-177,-166,-154,-142,-148,-183,-268,-297,-194,-12,149,102,-56,-121,-123,-95,-143,-256,-306,-285,-242,-204,-183,-177,-174,-173,-169,-156,-142,-131,-127,-117,-109,-99,-92,-90,-79,-66,-61,-59,-52,-38,-32,-24,-15,-1,13,21,34,46,57,63,65,69,67,65,55,43,34,23,18,13,3,-6,-14,-24,-42,-50,-48,-39,-31,-27,-25,-24,-14,9,38,62,68,81,96,94,86,74,60,40,40,42,22,-7,-41,-72,-94,-104,-109,-111,-112,-114,-115,-116,-113,-112,-120,-118,-96,-68,-75,-100,-163,-178,-83,50,147,44,-171,-279,-286,-262,-275,-303,-259,-185,-135,-126,-132,-124,-115,-108,-103,-98,-88,-85,-87,-77,-53,-39,-36,-32,-28,-23,-10,0,15,26,35,36,43,56,66,73,75,76,79,80,90,89,79,71,66,55,39,22,2,-16,-25,-34,-39,-42,-46,-51,-57,-47,-40,-28,-12,-7,4,19,35,57,80,100,117,123,112,99,95,91,75,52,37,14,-15,-49,-71,-87,-95,-105,-116,-121,-122,-117,-108,-112,-110,-108,-104,-85,-71,-72,-90,-157,-166,-79,39,125,13,-188,-287,-282,-236,-244,-268,-224,-158,-110,-107,-121,-119,-117,-111,-102,-92,-85,-85,-78,-67,-58,-52,-44,-35,-24,-11,-7,3,20,28,23,27,48,62,61,60,63,72,71,66,64,60,56,48,38,27,11,0,-12,-25,-36,-49,-54,-57,-54,-51,-56,-52,-38,-27,-15,-3,8,13,21,43,63,79,97,120,128,116,105,100,95,80,65,50,30,-3,-42,-63,-80,-94,-102,-102,-107,-112,-109,-107,-105,-100,-94,-91,-79,-66,-74,-104,-172,-188,-91,57,187,109,-86,-174,-162,-128,-145,-194,-161,-89,-56,-76,-96,-102,-106,-97,-87,-87,-85,-74,-71,-56,-38,-31,-26,-24,-24,-17,5,20,30,45,50,59,76,79,75,75,73,79,89,85,75,67,59,52,48,38,23,16,14,3,-13,-33,-44,-39,-34,-34,-32,-25,-14,-7,-4,4,25,39,40,45,63,79,100,126,151,168,160,145,139,129,115,103,83,58,28,-3,-32,-47,-54,-68,-74,-72,-75,-73,-70,-71,-71,-68,-68,-58,-50,-65,-99,-184,-216,-102,85,260,221,40,-60,-68,-41,-61,-123,-101,-40,-11,-39,-74,-84,-86,-84,-80,-78,-79,-74,-65,-57,-45,-30,-17,-9,-7,3,12,10,11,20,29,34,35,38,41,32,19,15,7,-2,-3,-10,-19,-21,-23,-35,-43,-45,-50,-58,-65,-66,-61,-61,-55,-55,-51,-47,-45,-36,-34,-36,-30,-20,-7,-1,-4,9,32,54,82,110,138,141,132,125,121,109,92,69,48,17,-20,-43,-59,-72,-85,-94,-96,-93,-90,-89,-92,-97,-98,-90,-78,-66,-90,-147,-246,-328,-242,-11,243,297,162,83,76,106,92,-24,-137,-143,-102,-83,-87,-102,-106,-104,-100,-89,-77,-71,-66,-60,-54,-44,-33,-24,-15,-9,-8,0,14,21,25,32,36,44,55,62,61,56,55,56,56,49,42,34,27,20,14,1,-16,-17,-17,-26,-28,-35,-40,-46,-50,-47,-45,-45,-44,-41,-39,-31,-18,-12,-11,-8,7,27,53,75,96,121,130,120,117,118,105,83,66,57,31,-17,-48,-63,-79,-85,-88,-95,-96,-97,-98,-97,-94,-95,-91,-77,-59,-76,-152,-252,-294,-172,94,387,475,308,163,110,99,48,-48,-77,-40,-18,-60,-108,-131,-141,-148,-148,-141,-136,-137,-134,-125,-115,-105,-108,-104,-87,-71,-63,-58,-50,-51,-52,-54,-48,-38,-35,-41,-47,-54,-66,-79,-83,-90,-91,-91,-99,-112,-119,-119,-120,-121,-127,-135,-133,-127,-120,-107,-97,-99,-96,-89,-83,-76,-69,-60,-52,-43,-36,-27,-13,2,22,48,72,99,120,123,115,102,96,85,63,46,20,-15,-49,-81,-96,-104,-109,-114,-114,-114,-110,-108,-112,-104,-98,-93,-83,-82,-124,-207,-302,-282,-89,207,459,448,277,183,158,131,37,-77,-99,-69,-54,-73,-100,-115,-129,-128,-129,-129,-122,-109,-101,-104,-100,-90,-81,-71,-59,-53,-49,-51,-50,-40,-33,-33,-40,-50,-51,-53,-60,-67,-73,-83,-95,-106,-120,-132,-136,-134,-135,-139,-140,-136,-137,-135,-135,-135,-126,-117,-113,-108,-99,-96,-94,-89,-82,-73,-70,-60,-49,-50,-51,-43,-24,1,31,61,94,98,87,86,92,84,61,48,25,-12,-52,-85,-101,-109,-118,-123,-119,-117,-123,-117,-110,-111,-115,-108,-97,-87,-117,-206,-346,-459,-382,-74,331,535,467,375,366,398,368,226,71,14,-4,-45,-97,-140,-163,-164,-160,-157,-159,-158,-156,-152,-147,-140,-129,-121,-118,-111,-103,-99,-103,-109,-114,-111,-111,-113,-119,-126,-135,-141,-151,-161,-167,-171,-177,-181,-182,-175,-167,-168,-166,-158,-159,-159,-158,-148,-137,-132,-120,-119,-119,-116,-106,-103,-104,-100,-98,-91,-77,-74,-71,-64,-46,-27,-7,29,68,79,70,66,63,61,51,38,20,-4,-54,-94,-108,-117,-122,-125,-133,-133,-130,-130,-130,-125,-115,-112,-115,-102,-99,-174,-298,-435,-443,-221,163,500,541,416,335,330,322,220,72,3,-4,-26,-87,-129,-155,-172,-182,-186,-187,-176,-165,-160,-155,-150,-148,-138,-126,-116,-113,-114,-109,-103,-105,-106,-106,-108,-109,-114,-125,-132,-131,-134,-139,-147,-154,-167,-178,-181,-172,-166,-163,-164,-160,-152,-148,-139,-131,-128,-129,-125,-126,-124,-114,-106,-107,-104,-99,-85,-68,-63,-67,-67,-53,-33,-9,6,31,68,89,86,72,69,64,50,32,12,-18,-59,-99,-123,-130,-128,-128,-136,-144,-145,-142,-142,-144,-148,-144,-128,-114,-128,-213,-339,-436,-376,-115,261,547,524,373,298,284,223,86,-37,-55,-29,-57,-120,-160,-186,-199,-201,-198,-195,-188,-179,-171,-173,-170,-156,-142,-137,-133,-132,-132,-132,-130,-131,-138,-134,-129,-132,-143,-149,-155,-168,-173,-179,-198,-210,-205,-204,-211,-218,-206,-189,-183,-191,-189,-172,-148,-137,-133,-133,-125,-117,-114,-107,-102,-94,-86,-81,-76,-72,-61,-40,-33,-33,-17,6,29,53,87,117,114,103,97,84,67,56,38,5,-35,-75,-96,-103,-102,-107,-117,-124,-121,-116,-108,-103,-99,-101,-97,-86,-89,-157,-272,-380,-369,-144,243,618,702,572,478,447,398,253,91,33,25,-11,-74,-119,-147,-162,-166,-171,-177,-180,-169,-156,-154,-153,-152,-150,-146,-135,-129,-129,-128,-126,-127,-132,-129,-133,-138,-144,-150,-171,-188,-190,-202,-215,-219,-220,-223,-217,-213,-207,-194,-182,-169,-160,-153,-143,-132,-123,-113,-96,-88,-84,-76,-71,-66,-57,-47,-37,-38,-33,-19,-13,-6,4,18,43,76,108,143,157,147,134,127,123,108,90,69,31,-13,-49,-62,-66,-67,-70,-74,-78,-75,-73,-80,-80,-76,-79,-75,-58,-83,-175,-312,-420,-351,-40,403,721,718,594,521,499,435,274,125,72,56,8,-61,-103,-133,-148,-148,-144,-145,-148,-146,-142,-131,-124,-118,-115,-116,-113,-103,-98,-101,-102,-110,-113,-122,-137,-141,-147,-160,-177,-185,-196,-202,-204,-220,-232,-227,-222,-213,-198,-183,-170,-166,-152,-141,-126,-111,-108,-96,-86,-76,-71,-66,-63,-58,-47,-41,-40,-41,-38,-25,-10,-11,-8,17,41,65,102,141,147,132,116,119,117,102,85,62,26,-17,-49,-68,-81,-81,-74,-80,-83,-81,-82,-77,-73,-69,-68,-64,-56,-91,-193,-328,-435,-364,-50,396,707,695,562,488,473,416,269,133,84,58,-7,-69,-107,-131,-140,-141,-153,-161,-154,-147,-140,-133,-132,-129,-124,-117,-122,-130,-134,-137,-137,-138,-130,-133,-146,-160,-179,-199,-220,-232,-241,-250,-254,-260,-261,-256,-249,-239,-228,-211,-185,-164,-145,-135,-128,-113,-96,-89,-86,-77,-67,-65,-62,-51,-46,-40,-36,-33,-27,-24,-15,-7,-2,14,34,56,76,107,134,139,130,119,119,112,98,81,49,11,-22,-42,-53,-58,-60,-58,-57,-54,-55,-54,-50,-51,-50,-45,-31,-28,-82,-202,-345,-399,-241,142,558,718,656,569,538,532,439,256,130,92,70,13,-44,-78,-98,-109,-110,-104,-94,-89,-86,-74,-70,-69,-60,-47,-38,-31,-22,-18,-19,-19,-16,-15,-19,-19,-17,-20,-32,-44,-51,-56,-61,-68,-69,-80,-89,-89,-87,-81,-77,-73,-69,-68,-65,-56,-39,-28,-23,-13,-4,4,11,14,17,18,24,28,29,34,43,46,54,65,81,103,126,159,183,178,163,157,155,142,128,110,88,56,18,-15,-40,-54,-57,-60,-64,-70,-74,-71,-64,-69,-75,-67,-56,-51,-68,-112,-210,-321,-304,-109,201,401,345,272,267,287,271,149,-31,-128,-146,-121,-110,-117,-118,-118,-118,-103,-99,-95,-92,-89,-87,-83,-78,-64,-60,-55,-63,-57,-48,-43,-49,-46,-43,-49,-43,-44,-54,-56,-67,-74,-66,-57,-75,-101,-109,-111,-96,-93,-109,-120,-138,-132,-123,-122,-122,-137,-112,-93,-99,-111,-107,-107,-98,-61,-37,-74,-92,-59,-27,-11,-21,-16,11,37,60,62,54,71,54,47,55,12,-12,-33,-46,-71,-80,-83,-129,-151,-177,-173,-150,-118,-132,-171,-143,-140,-145,-128,-143,-115,-77,-154,-233,-196,-95,58,192,129,42,19,21,36,-52,-188,-269,-280,-218,-193,-167,-144,-114,-107,-124,-113,-74,-76,-101,-88,-61,-39,-76,-93,-64,-45,-50,-42,-21,-23,-35,-30,-17,-25,-27,-4,4,22,39,23,13,15,18,11,19,22,2,-17,-8,-20,-50,-58,-52,-47,-42,-41,-44,-53,-57,-53,-53,-51,-45,-27,-23,-24,-13,7,22,48,69,90,124,132,120,115,117,111,97,86,64,37,15,-9,-27,-40,-50,-60,-68,-66,-54,-50,-53,-53,-51,-39,-27,-16,-3,-11,-38,-111,-168,-99,74,268,312,196,122,94,98,83,-8,-96,-109,-74,-31,3,9,15,23,27,35,52,71,83,90,100,107,114,121,125,130,145,155,152,162,176,194,203,209,222,233,241,251,262,267,274,280,279,278,272,263,257,248,239,230,221,212,200,189,181,177,166,160,157,155,156,162,163,163,173,189,195,199,209,227,249,270,295,321,333,321,306,300,294,284,273,261,241,210,176,146,129,132,138,132,125,121,124,124,127,130,132,131,131,153,152,113,40,-27,45,256,512,593,443,323,282,271,240,152,70,92,151,173,149,130,135,140,143,144,142,143,159,175,182,192,199,197,206,221,234,242,252,258,258,268,283,295,299,295,298,298,304,302,291,279,280,274,265,253,243,238,230,214,199,199,197,184,179,170,163,161,156,163,171,173,170,169,172,186,204,209,211,218,232,253,278,302,325,330,320,311,301,288,275,271,262,235,202,173,147,122,112,107,100,104,110,111,110,109,113,113,115,128,146,127,47,-58,-104,-2,262,605,759,638,510,467,441,372,250,171,174,191,162,113,86,73,70,73,74,75,77,83,88,106,116,119,122,131,139,146,153,156,168,174,180,191,189,187,188,193,188,173,171,173,170,165,159,147,140,136,129,130,127,120,116,116,116,124,114,117,114,110,113,120,127,136,139,136,134,139,153,171,173,177,194,218,242,256,290,307,289,260,245,236,229,228,212,172,133,97,75,61,49,40,39,40,39,32,30,31,22,17,28,45,68,55,22,-29,-55,23,194,386,385,248,195,182,163,100,-7,-80,-92,-71,-44,-21,-25,-28,-25,-27,-16,-13,-18,-23,-14,4,3,9,16,26,33,42,42,33,50,56,40,64,67,59,61,42,57,84,74,52,22,3,-1,-26,-47,-47,-32,-54,-79,-74,-61,-56,-61,-78,-96,-93,-63,-51,-49,-63,-58,-29,-20,-33,-30,-20,2,28,49,66,87,105,116,129,130,115,98,86,74,61,66,55,13,-18,-44,-77,-85,-90,-101,-113,-118,-113,-110,-106,-101,-100,-106,-105,-87,-53,-38,-53,-96,-128,-71,38,152,122,-61,-166,-186,-170,-181,-242,-275,-244,-183,-138,-117,-120,-114,-104,-100,-96,-81,-71,-63,-53,-38,-25,-28,-26,-23,-16,-2,18,30,39,49,60,74,91,110,124,130,136,147,151,154,159,155,148,148,137,121,104,92,78,58,39,26,7,-12,-33,-45,-55,-55,-49,-49,-53,-49,-44,-40,-28,-14,-2,19,31,46,62,82,107,127,140,126,109,99,92,80,65,54,43,10,-32,-60,-75,-81,-87,-99,-103,-101,-98,-97,-96,-102,-103,-98,-83,-55,-19,-12,-28,-78,-78,11,142,241,124,-71,-133,-123,-117,-148,-194,-180,-120,-77,-60,-75,-89,-89,-88,-81,-77,-74,-64,-58,-50,-40,-32,-24,-22,-18,-7,6,19,20,25,33,42,52,57,66,70,71,76,70,61,66,67,59,53,38,24,12,4,-9,-24,-32,-43,-62,-68,-64,-68,-70,-70,-71,-73,-73,-61,-48,-39,-30,-25,-27,-16,6,23,29,45,62,78,91,113,130,118,101,92,87,74,60,46,21,-1,-29,-56,-78,-93,-97,-108,-109,-122,-126,-122,-116,-114,-111,-106,-99,-79,-55,-52,-73,-124,-131,-55,68,197,117,-61,-129,-125,-118,-156,-209,-208,-147,-103,-94,-109,-117,-124,-130,-129,-118,-103,-97,-99,-93,-86,-76,-69,-65,-68,-64,-51,-35,-35,-22,-3,7,-5,-5,19,29,33,31,29,36,44,37,28,20,16,7,-9,-21,-27,-45,-70,-86,-84,-80,-80,-84,-81,-85,-92,-96,-102,-101,-91,-67,-50,-50,-46,-45,-29,-16,-13,-6,6,26,53,65,77,85,68,56,54,49,32,19,2,-25,-50,-81,-110,-127,-130,-142,-161,-173,-164,-150,-147,-151,-154,-160,-152,-141,-117,-92,-104,-138,-191,-181,-76,78,189,71,-68,-80,-64,-77,-141,-217,-225,-173,-136,-134,-153,-163,-166,-170,-176,-180,-173,-156,-140,-142,-141,-137,-133,-135,-131,-119,-110,-103,-92,-80,-73,-79,-69,-58,-47,-46,-54,-58,-60,-57,-47,-53,-68,-79,-94,-94,-90,-99,-100,-104,-120,-132,-128,-127,-131,-132,-131,-127,-125,-131,-132,-122,-107,-89,-78,-71,-67,-69,-63,-43,-32,-38,-41,-25,0,6,21,49,67,52,31,30,29,15,5,-8,-31,-65,-104,-125,-143,-159,-171,-175,-169,-167,-172,-174,-180,-185,-179,-172,-160,-152,-144,-140,-152,-216,-231,-141,25,185,125,-2,-35,-37,-65,-132,-218,-241,-194,-171,-167,-164,-169,-182,-182,-182,-182,-178,-175,-167,-155,-154,-164,-153,-139,-134,-123,-113,-103,-95,-99,-92,-74,-67,-59,-57,-57,-41,-38,-53,-54,-36,-33,-45,-54,-70,-83,-90,-98,-107,-113,-121,-129,-135,-142,-144,-143,-138,-136,-135,-129,-128,-122,-112,-122,-126,-112,-97,-88,-71,-68,-66,-57,-49,-40,-22,-13,2,29,62,75,70,59,48,47,36,11,-7,-18,-51,-93,-120,-125,-125,-132,-146,-152,-145,-141,-149,-156,-150,-135,-129,-131,-116,-96,-95,-125,-182,-176,-69,98,243,158,0,-46,-57,-69,-115,-189,-204,-165,-134,-112,-118,-138,-145,-143,-144,-143,-150,-147,-129,-108,-103,-96,-85,-77,-68,-60,-57,-59,-57,-42,-26,-23,-10,-4,-8,-12,-14,-5,-2,2,-2,-8,-13,-28,-42,-47,-55,-58,-67,-79,-89,-93,-97,-105,-110,-106,-104,-95,-89,-96,-97,-86,-73,-66,-73,-74,-69,-57,-47,-41,-36,-26,-15,-12,-9,3,21,40,55,75,91,79,63,54,51,43,33,4,-20,-38,-63,-90,-114,-118,-122,-127,-126,-125,-124,-129,-132,-132,-128,-126,-117,-92,-68,-85,-129,-186,-171,-62,113,283,223,61,-5,-17,-37,-97,-173,-193,-142,-99,-90,-112,-137,-151,-150,-141,-129,-123,-117,-105,-98,-99,-94,-88,-83,-74,-67,-54,-51,-56,-51,-41,-37,-33,-22,-6,-4,-3,-5,-11,-19,-21,-24,-27,-36,-57,-68,-73,-79,-82,-69,-59,-63,-78,-94,-88,-77,-98,-117,-119,-101,-74,-69,-66,-66,-71,-79,-73,-59,-47,-41,-38,-30,-21,-25,-24,-14,-1,30,52,66,79,91,91,78,66,67,59,37,18,2,-28,-62,-91,-101,-106,-121,-134,-135,-131,-130,-126,-119,-115,-118,-128,-133,-114,-83,-110,-164,-244,-273,-150,101,386,450,301,191,137,100,47,-57,-142,-136,-98,-83,-108,-136,-153,-161,-160,-152,-150,-151,-142,-137,-136,-130,-117,-107,-103,-97,-96,-91,-83,-77,-72,-71,-74,-74,-78,-75,-78,-84,-92,-92,-91,-96,-104,-115,-121,-119,-113,-117,-129,-128,-122,-127,-128,-126,-127,-125,-123,-122,-120,-119,-113,-109,-104,-98,-95,-91,-84,-79,-80,-74,-69,-62,-51,-44,-34,-30,-32,-20,3,29,55,79,100,110,107,94,85,75,62,47,31,3,-36,-70,-87,-95,-102,-103,-110,-110,-105,-106,-113,-116,-109,-102,-99,-87,-82,-87,-126,-209,-282,-226,-47,203,344,236,154,153,161,131,24,-97,-134,-112,-99,-100,-108,-120,-121,-119,-116,-111,-112,-109,-102,-92,-88,-83,-79,-70,-61,-55,-52,-53,-52,-45,-47,-52,-46,-43,-49,-54,-52,-53,-59,-70,-74,-77,-86,-91,-98,-105,-106,-106,-102,-100,-107,-103,-104,-108,-98,-97,-96,-98,-88,-79,-70,-66,-65,-56,-56,-51,-45,-42,-37,-36,-31,-27,-26,-19,-14,-9,8,29,48,71,95,103,96,85,84,81,67,58,37,6,-27,-54,-76,-88,-102,-114,-118,-117,-110,-112,-123,-122,-118,-120,-112,-100,-91,-82,-94,-138,-221,-221,-106,80,251,194,80,70,86,82,6,-118,-184,-174,-139,-116,-114,-122,-120,-119,-107,-104,-100,-93,-87,-81,-71,-52,-43,-36,-26,-12,-10,-18,-14,-5,5,16,26,31,35,36,33,38,48,50,47,40,35,29,27,25,22,15,10,2,-11,-12,-6,-10,-16,-21,-23,-26,-25,-22,-25,-27,-24,-16,-12,-5,-2,0,12,27,27,32,47,52,55,59,81,100,108,120,146,166,169,160,146,138,138,129,113,84,44,16,-14,-37,-40,-33,-37,-47,-55,-53,-45,-50,-51,-45,-36,-26,-14,-16,-41,-85,-148,-123,6,206,367,266,99,36,19,-2,-74,-164,-170,-99,-49,-32,-44,-53,-56,-52,-53,-53,-54,-48,-40,-34,-21,-5,5,12,11,17,23,28,40,52,62,75,85,85,85,96,105,102,102,104,100,95,87,81,72,55,44,43,44,38,31,23,20,16,3,-10,-13,-15,-22,-25,-17,-4,-5,3,11,14,23,32,24,24,33,39,47,52,50,63,83,101,123,139,155,174,171,150,138,125,106,86,63,37,8,-22,-48,-62,-66,-78,-83,-77,-78,-79,-81,-85,-82,-72,-73,-64,-42,-40,-75,-120,-141,-71,94,327,467,327,165,108,69,9,-81,-143,-107,-54,-41,-62,-82,-92,-105,-111,-117,-112,-119,-114,-89,-77,-79,-78,-59,-45,-42,-42,-35,-19,-5,-3,-13,-20,-9,-7,-18,-19,-14,-9,-21,-40,-51,-62,-58,-60,-81,-83,-81,-93,-103,-93,-75,-80,-87,-93,-96,-84,-81,-87,-83,-83,-82,-57,-35,-28,-35,-50,-47,-25,-6,-17,-24,-8,7,1,-12,-8,18,50,65,84,117,136,122,117,122,109,93,82,70,43,-7,-50,-72,-73,-72,-74,-78,-75,-76,-77,-81,-86,-86,-78,-77,-81,-64,-51,-93,-176,-281,-302,-159,154,502,582,446,341,294,264,192,52,-30,-24,-6,-23,-68,-103,-123,-123,-120,-117,-119,-121,-114,-110,-109,-107,-94,-87,-82,-79,-76,-70,-67,-67,-65,-62,-66,-71,-80,-82,-82,-86,-95,-100,-110,-117,-120,-128,-132,-129,-121,-115,-117,-122,-124,-121,-116,-110,-99,-88,-88,-79,-79,-79,-69,-55,-50,-45,-37,-31,-24,-23,-19,-13,-6,6,17,23,22,25,46,80,101,115,144,173,173,164,148,149,141,117,102,73,38,8,-17,-34,-47,-62,-62,-61,-64,-64,-61,-67,-74,-70,-63,-66,-58,-39,-52,-102,-187,-214,-114,88,337,380,238,191,212,216,149,5,-87,-90,-77,-71,-63,-77,-98,-105,-99,-96,-90,-84,-69,-59,-66,-60,-48,-40,-29,-24,-13,-10,-17,-24,-15,-4,-2,-4,-15,-15,-13,-9,-20,-25,-23,-25,-37,-39,-64,-81,-78,-74,-80,-77,-68,-75,-75,-67,-76,-84,-84,-73,-59,-54,-47,-34,-25,-54,-52,-29,-25,-18,-23,-26,-13,-1,1,-9,5,35,54,49,56,102,136,124,86,71,81,70,55,46,34,1,-39,-67,-84,-95,-106,-108,-101,-103,-108,-105,-104,-95,-92,-107,-104,-96,-80,-78,-89,-149,-196,-130,18,198,253,142,86,84,104,74,-44,-158,-187,-169,-146,-118,-103,-103,-103,-98,-94,-96,-82,-69,-67,-60,-56,-45,-39,-30,-17,-9,-11,-8,-5,-3,5,22,33,33,35,39,43,53,62,51,48,48,49,59,58,44,42,45,38,29,19,6,0,2,5,8,6,6,5,-1,-11,-19,-8,2,12,14,12,20,24,35,47,48,42,45,61,90,126,147,171,175,167,156,146,135,125,118,99,74,41,6,-11,-30,-53,-69,-60,-48,-43,-45,-50,-58,-52,-45,-40,-46,-44,-29,-51,-109,-212,-242,-119,131,380,376,238,186,187,193,139,15,-71,-70,-43,-37,-50,-65,-73,-78,-68,-58,-62,-59,-45,-38,-33,-23,-17,-10,0,0,0,8,11,7,8,24,39,35,30,24,25,41,52,46,16,0,10,13,13,9,8,-6,-17,-18,-20,-27,-32,-31,-31,-31,-37,-33,-30,-28,-28,-29,-35,-39,-47,-43,-17,-5,-11,2,10,12,8,17,26,39,61,72,86,125,153,150,139,132,121,107,94,71,46,8,-29,-40,-46,-53,-55,-64,-66,-66,-70,-71,-71,-68,-65,-62,-58,-46,-48,-112,-223,-328,-322,-133,230,575,587,443,388,416,411,313,163,76,63,41,-16,-58,-82,-106,-118,-118,-116,-111,-108,-112,-108,-97,-94,-93,-86,-78,-74,-73,-76,-73,-71,-76,-79,-84,-86,-91,-94,-92,-99,-107,-117,-122,-122,-114,-109,-115,-115,-109,-109,-104,-94,-76,-60,-57,-51,-41,-36,-29,-22,-13,-10,-6,-3,3,9,10,19,26,38,44,45,47,59,68,68,74,97,128,151,173,205,226,219,208,205,195,181,165,146,113,79,46,9,-13,-24,-30,-33,-33,-44,-48,-46,-44,-45,-45,-39,-43,-28,-15,-37,-87,-176,-225,-136,86,359,396,277,254,277,289,236,71,-58,-86,-76,-63,-51,-70,-81,-85,-89,-86,-81,-83,-71,-68,-67,-60,-46,-33,-31,-35,-32,-32,-28,-13,0,-6,-10,-21,-28,-18,-16,-21,-25,-30,-38,-50,-62,-66,-81,-77,-67,-69,-91,-112,-99,-105,-101,-76,-82,-92,-87,-74,-76,-88,-75,-64,-78,-71,-46,-39,-46,-28,-23,-30,-15,4,5,-7,1,36,60,74,101,131,134,111,88,73,70,54,27,17,-11,-52,-82,-109,-119,-120,-124,-128,-132,-136,-127,-123,-127,-131,-121,-121,-118,-100,-113,-140,-204,-249,-201,-79,105,175,73,38,88,139,125,-1,-140,-159,-122,-106,-116,-129,-137,-139,-143,-130,-124,-135,-145,-129,-99,-100,-121,-98,-76,-93,-82,-69,-66,-61,-62,-54,-36,-44,-83,-55,-20,-24,-21,-38,-56,-47,-39,-26,3,13,-6,-11,-9,6,-6,-30,-16,-10,-13,-35,-57,-53,-32,10,17,-17,-38,-20,6,15,22,24,29,35,33,43,53,66,99,129,137,140,174,188,183,189,184,174,157,135,111,91,71,22,-19,-25,-20,-38,-49,-40,-38,-39,-33,-29,-28,-15,-9,-14,-20,-26,-58,-123,-236,-254,-94,176,428,455,379,336,303,312,280,130,-7,-38,-19,-23,-40,-58,-62,-63,-67,-58,-47,-51,-46,-46,-46,-38,-22,-6,-16,-16,8,15,-10,-18,0,16,26,23,32,38,33,18,14,20,16,19,13,-4,-4,13,25,16,4,2,-3,-9,-14,-13,-10,-9,-13,-21,-25,-25,-19,-9,-4,2,3,-3,-9,-8,6,20,13,9,37,60,76,94,117,150,176,174,171,169,153,130,120,123,116,86,56,32,7,2,8,6,4,-2,-9,-16,-5,18,26,21,15,19,40,28,-46,-175,-292,-274,-34,384,733,774,699,663,645,596,464,290,189,163,131,56,2,-26,-55,-55,-45,-39,-48,-64,-74,-64,-44,-38,-39,-44,-46,-40,-39,-39,-33,-28,-28,-37,-50,-58,-62,-68,-78,-85,-91,-89,-87,-90,-88,-87,-87,-83,-80,-68,-59,-56,-47,-34,-21,-11,-3,3,8,11,20,28,32,30,27,26,25,30,39,41,38,37,45,56,59,66,85,102,119,138,170,181,171,160,153,153,148,134,113,83,56,31,10,-13,-30,-29,-23,-21,-27,-33,-35,-37,-25,-21,-23,-15,6,28,-1,-85,-190,-232,-135,139,496,630,524,439,424,405,339,199,73,55,67,44,0,-35,-57,-63,-61,-55,-47,-48,-51,-42,-31,-23,-20,-13,-5,-6,1,15,13,15,16,23,27,29,27,19,17,19,14,10,6,-4,-15,-20,-19,-18,-25,-32,-34,-36,-38,-39,-34,-39,-40,-31,-28,-34,-33,-31,-27,-19,-15,-15,-16,-8,-4,-4,0,2,9,19,30,35,40,47,63,90,115,136,154,153,148,135,124,120,103,83,67,35,-1,-24,-49,-69,-77,-74,-73,-78,-87,-85,-89,-94,-96,-84,-75,-77,-73,-67,-77,-133,-214,-191,-42,186,340,261,164,160,172,149,44,-101,-162,-153,-145,-129,-118,-116,-115,-115,-114,-118,-103,-99,-104,-99,-84,-72,-78,-76,-75,-71,-61,-55,-52,-37,-32,-60,-58,-40,-36,-43,-35,-23,-30,-50,-46,-63,-75,-67,-67,-81,-92,-93,-116,-127,-115,-114,-107,-97,-104,-105,-103,-114,-123,-110,-93,-78,-87,-86,-80,-82,-79,-72,-65,-52,-43,-25,6,4,4,13,53,78,87,65,49,53,46,36,33,13,-12,-40,-74,-102,-117,-121,-119,-141,-152,-152,-147,-146,-146,-138,-135,-131,-131,-122,-106,-104,-109,-164,-210,-149,-9,169,202,48,-37,-43,-20,-52,-147,-233,-255,-224,-181,-160,-158,-152,-140,-123,-111,-103,-105,-111,-99,-83,-77,-65,-60,-56,-43,-28,-21,-13,-8,-6,3,19,31,42,57,58,65,74,76,87,92,92,97,92,85,84,71,60,53,42,31,17,6,2,11,5,-9,-23,-26,-24,-32,-27,-17,-15,-14,-11,-3,19,34,36,43,53,58,75,99,115,130,156,167,162,142,134,131,122,115,107,89,58,18,-16,-30,-38,-40,-47,-47,-51,-65,-65,-57,-50,-48,-50,-47,-33,-14,-25,-69,-150,-205,-119,93,358,465,321,197,148,129,93,1,-99,-119,-81,-51,-47,-59,-74,-79,-71,-67,-61,-54,-51,-47,-43,-32,-22,-22,-13,-2,4,8,19,25,29,36,44,46,49,55,57,57,62,63,59,51,50,52,46,40,33,21,7,5,8,3,-4,-16,-25,-22,-18,-16,-23,-28,-26,-20,-13,-6,-3,3,4,2,6,17,35,44,43,44,65,94,112,129,148,172,185,177,168,159,149,134,119,102,72,44,19,-4,-24,-30,-26,-29,-35,-34,-31,-30,-31,-38,-39,-33,-29,-12,12,-13,-99,-210,-236,-102,189,527,637,529,437,394,350,270,131,26,16,39,25,-19,-50,-69,-75,-73,-72,-75,-80,-80,-70,-56,-51,-51,-49,-39,-32,-25,-16,-11,-12,-13,-8,3,3,-4,-4,-4,-6,-13,-19,-22,-22,-23,-31,-40,-41,-38,-36,-40,-45,-42,-39,-35,-33,-33,-29,-25,-16,-11,-8,-10,-10,-8,-4,-4,-3,-1,1,4,6,13,23,35,43,43,52,75,99,123,145,171,184,175,166,160,152,140,122,107,84,50,19,-3,-14,-16,-20,-21,-19,-19,-20,-15,-13,-21,-24,-14,-4,10,31,5,-75,-176,-196,-64,240,552,584,440,364,345,311,231,93,2,11,38,31,-7,-35,-52,-58,-55,-51,-50,-47,-41,-33,-24,-16,-15,-13,-2,7,15,15,15,26,36,36,39,40,42,46,40,36,31,27,24,18,10,4,2,-6,-16,-22,-24,-22,-26,-29,-33,-32,-33,-32,-26,-29,-36,-32,-28,-26,-19,-15,-20,-15,-4,3,-1,-3,3,12,23,27,21,36,62,82,104,128,150,151,140,130,124,111,95,81,60,25,-6,-37,-61,-69,-72,-87,-96,-95,-94,-94,-91,-87,-99,-101,-93,-94,-78,-59,-68,-114,-200,-209,-86,148,341,283,149,118,131,135,50,-101,-182,-182,-153,-135,-119,-114,-113,-116,-111,-102,-96,-87,-86,-87,-80,-68,-57,-58,-52,-41,-41,-33,-22,-23,-20,-15,-7,-2,-5,0,2,3,4,8,1,-11,-8,-7,-15,-23,-33,-45,-52,-52,-55,-64,-70,-70,-66,-72,-77,-77,-67,-64,-72,-70,-62,-59,-54,-43,-36,-30,-24,-20,-10,-1,7,17,33,51,69,89,115,130,119,108,103,91,78,67,55,35,7,-26,-56,-73,-75,-86,-100,-97,-90,-90,-87,-88,-93,-92,-92,-86,-70,-56,-65,-92,-164,-218,-147,24,228,290,169,87,70,84,68,-27,-147,-176,-131,-93,-76,-85,-93,-92,-88,-85,-85,-75,-68,-59,-47,-43,-37,-33,-25,-15,-5,0,2,10,25,42,50,56,69,77,78,79,85,94,96,93,93,92,88,80,70,66,61,51,40,33,28,19,11,4,2,-7,-12,-11,-9,-1,0,-4,-3,-1,5,6,16,25,33,48,50,54,60,85,111,134,151,168,174,171,162,149,138,123,105,88,71,47,16,-9,-31,-41,-47,-47,-46,-43,-32,-27,-28,-29,-25,-29,-30,-16,-7,-44,-116,-200,-212,-86,172,458,506,348,241,214,210,167,53,-21,-2,30,13,-33,-57,-67,-76,-80,-82,-83,-77,-70,-61,-55,-53,-54,-51,-43,-36,-36,-34,-29,-18,-15,-15,-16,-14,-2,-1,-13,-24,-25,-28,-43,-43,-45,-48,-46,-43,-51,-55,-48,-50,-59,-55,-45,-43,-42,-46,-53,-50,-35,-23,-26,-28,-25,-22,-24,-27,-28,-23,-21,-23,-22,-14,-4,2,2,10,30,53,76,95,123,135,129,117,110,105,94,87,77,50,14,-20,-44,-50,-49,-53,-56,-58,-61,-61,-59,-53,-51,-49,-51,-45,-29,-17,-57,-155,-267,-317,-223,70,462,634,550,478,473,457,381,232,123,100,86,31,-35,-76,-103,-110,-111,-118,-115,-112,-105,-97,-94,-94,-92,-89,-85,-76,-65,-66,-71,-67,-63,-64,-64,-66,-63,-61,-65,-76,-86,-94,-98,-98,-99,-101,-98,-96,-99,-102,-99,-89,-82,-76,-67,-64,-59,-56,-51,-38,-26,-28,-24,-19,-17,-12,-12,-8,-6,-7,-1,7,15,21,31,43,43,36,49,76,95,108,139,175,183,174,158,154,145,123,107,86,56,23,-8,-30,-46,-60,-66,-64,-56,-55,-53,-58,-66,-74,-70,-67,-61,-44,-34,-55,-115,-209,-227,-98,135,386,390,270,247,253,241,158,11,-88,-105,-85,-83,-85,-93,-101,-96,-90,-89,-88,-91,-83,-71,-70,-68,-63,-52,-51,-46,-39,-26,-25,-43,-42,-41,-38,-25,-21,-40,-40,-25,-24,-47,-66,-66,-66,-73,-76,-83,-88,-87,-89,-99,-97,-88,-90,-91,-90,-93,-90,-87,-84,-71,-70,-74,-68,-72,-71,-64,-55,-47,-36,-23,-16,-17,-20,-21,-16,14,34,50,77,104,122,113,99,95,86,66,49,35,17,-10,-51,-78,-90,-95,-106,-112,-102,-101,-101,-101,-100,-91,-96,-104,-105,-91,-72,-81,-115,-201,-277,-236,-67,160,269,202,142,154,199,189,73,-64,-106,-74,-52,-52,-69,-81,-96,-106,-96,-79,-75,-69,-62,-55,-41,-40,-47,-41,-34,-31,-26,-15,-11,-5,-7,-11,-3,5,16,15,5,-3,-9,-10,-9,-13,-14,-14,-24,-28,-26,-30,-34,-39,-47,-41,-27,-27,-35,-32,-33,-41,-52,-50,-41,-45,-43,-40,-30,-23,-17,-10,-2,3,2,15,28,12,14,40,61,83,117,140,126,120,125,115,94,72,64,54,21,-15,-39,-56,-74,-86,-89,-87,-73,-69,-81,-85,-93,-100,-88,-80,-77,-72,-77,-116,-194,-298,-314,-179,105,425,492,387,331,334,332,254,107,25,27,25,-9,-64,-96,-114,-114,-111,-119,-122,-117,-117,-120,-116,-102,-91,-95,-99,-104,-98,-87,-88,-87,-94,-102,-98,-89,-88,-100,-107,-114,-116,-119,-130,-134,-135,-142,-139,-138,-137,-131,-128,-122,-112,-101,-97,-95,-87,-74,-66,-64,-68,-65,-58,-59,-55,-50,-48,-46,-42,-36,-35,-32,-24,-21,-17,-6,-2,-2,13,34,58,81,104,129,132,123,115,111,100,86,69,44,19,-14,-40,-56,-63,-67,-67,-70,-68,-63,-65,-65,-62,-57,-57,-55,-43,-24,-32,-95,-197,-298,-301,-126,236,580,629,531,495,516,506,401,247,166,141,109,46,-14,-56,-76,-84,-86,-88,-86,-79,-74,-65,-68,-69,-60,-59,-58,-54,-44,-42,-50,-53,-46,-53,-63,-66,-74,-73,-76,-91,-95,-103,-110,-113,-114,-114,-110,-104,-107,-109,-101,-90,-79,-66,-57,-49,-50,-43,-38,-26,-16,-11,-8,-6,-1,6,7,13,20,29,29,30,29,31,43,59,62,60,65,75,97,122,145,174,191,179,167,156,153,147,131,114,87,48,23,5,-22,-35,-35,-38,-45,-50,-48,-45,-49,-50,-44,-44,-51,-44,-34,-58,-104,-181,-243,-192,-22,244,407,350,300,322,362,332,198,37,-35,-38,-49,-63,-72,-88,-84,-82,-86,-84,-80,-74,-74,-69,-65,-56,-58,-51,-47,-45,-49,-48,-39,-35,-30,-43,-44,-37,-35,-43,-42,-45,-49,-48,-46,-50,-55,-60,-66,-74,-73,-67,-64,-64,-67,-63,-67,-65,-63,-62,-51,-40,-42,-42,-37,-36,-34,-25,-16,-12,-9,-13,-13,-6,8,18,22,24,32,41,56,76,94,115,143,160,153,140,130,119,114,111,91,64,31,-3,-23,-45,